timestamp,ecg
0.0,0.015236
0.004,-0.021844
0.008,0.097805
0.012,0.137383
0.016,0.022793
0.02,0.085117
0.024,0.186362
0.028,0.193738
0.032,0.2381
0.036,0.225461
0.04,0.341011
0.044,0.36459
0.048,0.357364
0.052,0.438465
0.056,0.433171
0.06,0.394151
0.064,0.482476
0.068,0.442595
0.072,0.560516
0.076,0.539681
0.08,0.558026
0.084,0.557798
0.088,0.677009
0.092,0.631632
0.096,0.640838
0.1,0.66694
0.104,0.732833
0.108,0.745518
0.112,0.768249
0.116,0.788841
0.12,0.893371
0.124,0.784241
0.128,0.796492
0.132,0.79821
0.136,0.885729
0.14,0.926632
0.144,0.878949
0.148,0.856296
0.152,0.86992
0.156,0.955686
0.16,0.971492
0.164,0.971809
0.168,0.920839
0.172,0.974319
0.176,0.976265
0.18,0.988203
0.184,1.026788
0.188,0.999451
0.192,1.026372
0.196,0.999058
0.2,1.012483
0.204,1.031031
0.208,0.927139
0.212,0.983634
0.216,0.974811
0.22,0.96419
0.224,0.979274
0.228,1.063773
0.232,0.94083
0.236,1.026735
0.24,0.887488
0.244,0.947314
0.248,0.963746
0.252,0.9756
0.256,0.97167
0.26,0.964745
0.264,0.895768
0.268,0.877383
0.272,0.929877
0.276,0.863084
0.28,0.793742
0.284,0.78496
0.288,0.778983
0.292,0.832395
0.296,0.796505
0.3,0.805038
0.304,0.729579
0.308,0.738614
0.312,0.741047
0.316,0.672735
0.32,0.688851
0.324,0.610119
0.328,0.601681
0.332,0.576802
0.336,0.511609
0.34,0.570743
0.344,0.49742
0.348,0.495537
0.352,0.492522
0.356,0.463958
0.36,0.447645
0.364,0.381819
0.368,0.337594
0.372,0.326463
0.376,0.217471
0.38,0.200596
0.384,0.177683
0.388,0.1646
0.392,0.204901
0.396,0.109919
0.4,0.106425
0.404,0.160321
0.408,0.047485
0.412,0.072054
0.416,-0.041654
0.42,-0.035402
0.424,-0.102765
0.428,-0.102299
0.432,-0.073338
0.436,-0.23162
0.44,-0.153302
0.444,-0.192746
0.448,-0.263764
0.452,-0.33557
0.456,-0.288632
0.46,-0.347418
0.464,-0.337723
0.468,-0.37636
0.472,-0.325116
0.476,-0.444557
0.48,-0.510755
0.484,-0.477189
0.488,-0.501283
0.492,-0.469988
0.496,-0.521367
0.5,-0.569942
0.504,-0.538748
0.508,-0.694924
0.512,-0.690467
0.516,-0.727203
0.52,-0.72214
0.524,-0.792621
0.528,-0.712507
0.532,-0.775177
0.536,-0.856713
0.54,-0.852346
0.544,-0.803556
0.548,-0.794246
0.552,-0.752475
0.556,-0.722003
0.56,-0.861571
0.564,-0.945561
0.568,-1.015664
0.572,-0.907827
0.576,-0.973173
0.58,-0.963758
0.584,-0.983203
0.588,-0.968378
0.592,-0.915906
0.596,-0.968338
0.6,-0.990219
0.604,-1.039274
0.608,-1.075531
0.612,-1.019516
0.616,-1.000388
0.62,-0.910893
0.624,-0.993458
0.628,-0.950607
0.632,-1.023572
0.636,-1.05581
0.64,-1.041867
0.644,-1.026018
0.648,-0.878578
0.652,-1.020419
0.656,-0.930884
0.66,-1.010528
0.664,-0.910498
0.668,-0.928654
0.672,-0.945697
0.676,-0.929013
0.68,-0.947981
0.684,-0.880372
0.688,-0.912038
0.692,-0.936373
0.696,-0.923999
0.7,-0.835699
0.704,-0.748832
0.708,-0.802492
0.712,-0.798392
0.716,-0.759416
0.72,-0.688951
0.724,-0.72314
0.728,-0.733846
0.732,-0.636526
0.736,-0.648315
0.74,-0.570268
0.744,-0.614609
0.748,-0.661141
0.752,-0.643927
0.756,-0.468051
0.76,-0.438991
0.764,-0.50825
0.768,-0.492079
0.772,-0.373063
0.776,-0.474297
0.78,-0.43611
0.784,-0.33128
0.788,-0.354919
0.792,-0.306882
0.796,-0.285956
0.8,-0.231811
0.804,-0.148995
0.808,-0.18532
0.812,-0.12796
0.816,-0.232827
0.82,-0.102798
0.824,-0.112475
0.828,-0.101142
0.832,-0.053961
0.836,0.003399
0.84,0.096039
0.844,0.014018
0.848,0.11189
0.852,0.116071
0.856,0.153688
0.86,0.249848
0.864,0.256072
0.868,0.325284
0.872,0.279702
0.876,0.281382
0.88,0.33345
0.884,0.384918
0.888,0.409434
0.892,0.373833
0.896,0.459634
0.9,0.493165
0.904,0.633833
0.908,0.627545
0.912,0.516299
0.916,0.569342
0.92,0.534758
0.924,0.602061
0.928,0.670468
0.932,0.737477
0.936,0.66261
0.94,0.687602
0.944,0.633534
0.948,0.752681
0.952,0.726917
0.956,0.77208
0.96,0.772496
0.964,0.828671
0.968,0.761785
0.972,0.791834
0.976,0.986376
0.98,0.82947
0.984,0.852117
0.988,1.011091
0.992,1.075952
0.996,0.882727
1.0,0.932644
1.004,0.97702
1.008,1.05439
1.012,0.925745
1.016,0.969069
1.02,1.025553
1.024,1.01288
1.028,0.975888
1.032,0.990654
1.036,0.930343
1.04,0.988012
1.044,0.986526
1.048,1.010469
1.052,0.9692
1.056,1.017743
1.06,1.041097
1.064,0.993627
1.068,0.997942
1.072,0.976618
1.076,0.966685
1.08,0.922444
1.084,0.965316
1.088,0.934733
1.092,1.033507
1.096,0.995923
1.1,0.924119
1.104,0.853423
1.108,0.821894
1.112,0.922212
1.116,0.860148
1.12,0.854603
1.124,0.726196
1.128,0.841888
1.132,0.799603
1.136,0.702021
1.14,0.713937
1.144,0.729999
1.148,0.698085
1.152,0.658869
1.156,0.645706
1.16,0.615092
1.164,0.61156
1.168,0.653197
1.172,0.426453
1.176,0.517603
1.18,0.512449
1.184,0.492143
1.188,0.432033
1.192,0.335668
1.196,0.412394
1.2,0.454492
1.204,0.263227
1.208,0.354598
1.212,0.266183
1.216,0.250489
1.22,0.171626
1.224,0.178059
1.228,0.230119
1.232,0.164433
1.236,0.191977
1.24,0.134197
1.244,0.067178
1.248,0.102276
1.252,0.006871
1.256,-0.003824
1.26,-0.090155
1.264,-0.102034
1.268,-0.170172
1.272,-0.115637
1.276,-0.253697
1.28,-0.185153
1.284,-0.263088
1.288,-0.224047
1.292,-0.273863
1.296,-0.248888
1.3,-0.331586
1.304,-0.474596
1.308,-0.426852
1.312,-0.509229
1.316,-0.503257
1.32,-0.428062
1.324,-0.497569
1.328,-0.589733
1.332,-0.630308
1.336,-0.602292
1.34,-0.688519
1.344,-0.684437
1.348,-0.657877
1.352,-0.637696
1.356,-0.686375
1.36,-0.852078
1.364,-0.742324
1.368,-0.773281
1.372,-0.774821
1.376,-0.732615
1.38,-0.933758
1.384,-0.876566
1.388,-0.83311
1.392,-0.956594
1.396,-0.817779
1.4,-0.886409
1.404,-0.874926
1.408,-0.957396
1.412,-0.898909
1.416,-0.896068
1.42,-0.946878
1.424,-0.954961
1.428,-0.960443
1.432,-1.023521
1.436,-0.993232
1.44,-0.998088
1.444,-0.974996
1.448,-0.946975
1.452,-1.051787
1.456,-1.006096
1.46,-0.925848
1.464,-1.036267
1.468,-1.038458
1.472,-0.98458
1.476,-0.948922
1.48,-0.986115
1.484,-0.914885
1.488,-0.932248
1.492,-0.925864
1.496,-0.932237
1.5,-0.834674
1.504,-0.951564
1.508,-1.030875
1.512,-0.839033
1.516,-0.929841
1.52,-0.888447
1.524,-0.814437
1.528,-0.945299
1.532,-0.912254
1.536,-0.913448
1.54,-0.856046
1.544,-0.77657
1.548,-0.753828
1.552,-0.747
1.556,-0.811537
1.56,-0.835814
1.564,-0.696347
1.568,-0.700773
1.572,-0.631719
1.576,-0.596499
1.58,-0.601018
1.584,-0.545705
1.588,-0.547501
1.592,-0.5072
1.596,-0.543193
1.6,-0.490734
1.604,-0.445271
1.608,-0.387026
1.612,-0.420292
1.616,-0.346735
1.62,-0.357935
1.624,-0.322056
1.628,-0.245951
1.632,-0.358067
1.636,-0.29399
1.64,-0.273819
1.644,-0.286753
1.648,-0.174192
1.652,-0.072887
1.656,-0.094582
1.66,-0.040355
1.664,0.034356
1.668,0.076437
1.672,0.036745
1.676,0.137993
1.68,0.104968
1.684,0.088449
1.688,0.130437
1.692,0.115823
1.696,0.174963
1.7,0.230789
1.704,0.317963
1.708,0.392664
1.712,0.266079
1.716,0.383088
1.72,0.339346
1.724,0.44268
1.728,0.439581
1.732,0.381375
1.736,0.545689
1.74,0.494925
1.744,0.523902
1.748,0.522032
1.752,0.567203
1.756,0.645165
1.76,0.637594
1.764,0.686186
1.768,0.709937
1.772,0.779332
1.776,0.71697
1.78,0.680408
1.784,0.827069
1.788,0.775886
1.792,0.866221
1.796,0.846955
1.8,0.837771
1.804,0.87754
1.808,0.972644
1.812,0.993138
1.816,0.906144
1.82,0.923251
1.824,0.980786
1.828,0.895582
1.832,0.964555
1.836,0.955784
1.84,0.981077
1.844,0.93114
1.848,0.899872
1.852,0.881352
1.856,0.933887
1.86,0.970678
1.864,0.981903
1.868,1.095469
1.872,1.055044
1.876,0.951867
1.88,1.016675
1.884,0.977345
1.888,0.980982
1.892,1.001063
1.896,1.01845
1.9,0.965324
1.904,1.029383
1.908,0.912108
1.912,0.961656
1.916,1.082481
1.92,0.954145
1.924,1.004186
1.928,0.925789
1.932,0.938101
1.936,0.893245
1.94,0.873771
1.944,0.828722
1.948,0.873827
1.952,0.793575
1.956,0.852511
1.96,0.855831
1.964,0.801499
1.968,0.749754
1.972,0.766963
1.976,0.708353
1.98,0.749427
1.984,0.589304
1.988,0.641699
1.992,0.535945
1.996,0.537161
2.0,0.655978
2.004,0.607882
2.008,0.501973
2.012,0.437158
2.016,0.337926
2.02,0.432405
2.024,0.55361
2.028,0.42695
2.032,0.349474
2.036,0.372611
2.04,0.242896
2.044,0.277372
2.048,0.268241
2.052,0.229751
2.056,0.244173
2.06,0.192255
2.064,0.178671
2.068,0.080935
2.072,0.130238
2.076,0.136711
2.08,-0.023377
2.084,-0.049411
2.088,0.031611
2.092,-0.074866
2.096,-0.025168
2.1,-0.14746
2.104,-0.082441
2.108,-0.178338
2.112,-0.201551
2.116,-0.165582
2.12,-0.29104
2.124,-0.348894
2.128,-0.352877
2.132,-0.336142
2.136,-0.465031
2.14,-0.382502
2.144,-0.46857
2.148,-0.411094
2.152,-0.614626
2.156,-0.560219
2.16,-0.630718
2.164,-0.612713
2.168,-0.583505
2.172,-0.628795
2.176,-0.655884
2.18,-0.673971
2.184,-0.678033
2.188,-0.760194
2.192,-0.695344
2.196,-0.717808
2.2,-0.751261
2.204,-0.761558
2.208,-0.792716
2.212,-0.723202
2.216,-0.845979
2.22,-0.872881
2.224,-0.910326
2.228,-0.938592
2.232,-0.962725
2.236,-0.957644
2.24,-0.928611
2.244,-0.919394
2.248,-0.943732
2.252,-0.993885
2.256,-0.919049
2.26,-0.934661
2.264,-0.986304
2.268,-1.016767
2.272,-0.961605
2.276,-0.983633
2.28,-1.06854
2.284,-1.001729
2.288,-0.986516
2.292,-1.044982
2.296,-0.989974
2.3,-1.070768
2.304,-0.92887
2.308,-0.930029
2.312,-1.000897
2.316,-0.965044
2.32,-1.097764
2.324,-1.028248
2.328,-0.9774
2.332,-1.007722
2.336,-0.908932
2.34,-0.834464
2.344,-0.981987
2.348,-0.953018
2.352,-0.886531
2.356,-0.80409
2.36,-0.931302
2.364,-0.842478
2.368,-0.747834
2.372,-0.904692
2.376,-0.868616
2.38,-0.807469
2.384,-0.793329
2.388,-0.706983
2.392,-0.715163
2.396,-0.794966
2.4,-0.658777
2.404,-0.691131
2.408,-0.575636
2.412,-0.647261
2.416,-0.623675
2.42,-0.540212
2.424,-0.504031
2.428,-0.494188
2.432,-0.574819
2.436,-0.437137
2.44,-0.488831
2.444,-0.398032
2.448,-0.45329
2.452,-0.331746
2.456,-0.36603
2.46,-0.361173
2.464,-0.232422
2.468,-0.226858
2.472,-0.240249
2.476,-0.107411
2.48,-0.172258
2.484,-0.118739
2.488,-0.076909
2.492,-0.091265
2.496,-0.006598
2.5,-0.026673
2.504,0.009573
2.508,0.128414
2.512,0.038325
2.516,-0.000294
2.52,0.230772
2.524,0.307436
2.528,0.189287
2.532,0.142098
2.536,0.252589
2.54,0.28273
2.544,0.316204
2.548,0.298393
2.552,0.411081
2.556,0.436021
2.56,0.362395
2.564,0.498998
2.568,0.593173
2.572,0.525191
2.576,0.525311
2.58,0.560169
2.584,0.622607
2.588,0.529348
2.592,0.647578
2.596,0.642731
2.6,0.776938
2.604,0.697509
2.608,0.81064
2.612,0.692426
2.616,0.796662
2.62,0.802258
2.624,0.76111
2.628,0.830974
2.632,0.899525
2.636,0.83874
2.64,0.785586
2.644,0.883768
2.648,0.853183
2.652,0.894027
2.656,0.919077
2.66,0.849046
2.664,0.863869
2.668,0.978218
2.672,0.936575
2.676,0.842193
2.68,1.01651
2.684,0.996835
2.688,0.952577
2.692,0.926585
2.696,1.03747
2.7,1.015494
2.704,1.118596
2.708,1.021006
2.712,1.019003
2.716,0.989983
2.72,1.036972
2.724,1.024286
2.728,1.051612
2.732,0.958055
2.736,0.956551
2.74,0.947677
2.744,1.003598
2.748,1.030527
2.752,0.923347
2.756,0.91487
2.76,0.940781
2.764,0.900916
2.768,0.948104
2.772,0.77439
2.776,0.831314
2.78,0.818406
2.784,0.725606
2.788,0.776774
2.792,0.761779
2.796,0.779329
2.8,0.826162
2.804,0.738688
2.808,0.679146
2.812,0.70692
2.816,0.740661
2.82,0.617214
2.824,0.597687
2.828,0.647761
2.832,0.584812
2.836,0.603776
2.84,0.545712
2.844,0.555974
2.848,0.443159
2.852,0.467881
2.856,0.431097
2.86,0.353581
2.864,0.308569
2.868,0.393046
2.872,0.312901
2.876,0.250723
2.88,0.268143
2.884,0.300219
2.888,0.100426
2.892,0.11008
2.896,0.109049
2.9,0.198392
2.904,0.109489
2.908,0.103664
2.912,-0.021829
2.916,-0.05095
2.92,-0.002739
2.924,-0.05235
2.928,-0.05791
2.932,-0.124737
2.936,-0.131347
2.94,-0.167117
2.944,-0.165744
2.948,-0.193706
2.952,-0.344261
2.956,-0.404602
2.96,-0.270856
2.964,-0.289971
2.968,-0.428484
2.972,-0.498197
2.976,-0.427638
2.98,-0.413038
2.984,-0.396273
2.988,-0.486468
2.992,-0.556533
2.996,-0.607779
3.0,-0.587213
3.004,-0.626877
3.008,-0.686239
3.012,-0.556042
3.016,-0.591616
3.02,-0.645848
3.024,-0.769829
3.028,-0.701514
3.032,-0.732085
3.036,-0.761046
3.04,-0.739084
3.044,-0.787464
3.048,-0.799151
3.052,-0.820466
3.056,-0.850656
3.06,-0.971472
3.064,-0.891903
3.068,-0.936871
3.072,-0.985205
3.076,-0.848435
3.08,-0.856541
3.084,-0.884637
3.088,-0.948578
3.092,-0.901674
3.096,-0.975587
3.1,-0.972147
3.104,-1.042165
3.108,-0.971947
3.112,-0.992181
3.116,-1.062831
3.12,-1.001849
3.124,-1.003958
3.128,-0.909866
3.132,-0.953897
3.136,-0.99599
3.14,-0.981172
3.144,-0.987546
3.148,-0.995147
3.152,-1.033471
3.156,-0.980361
3.16,-1.002687
3.164,-1.019593
3.168,-0.922341
3.172,-0.918301
3.176,-1.01631
3.18,-0.921375
3.184,-0.85289
3.188,-0.836328
3.192,-0.823801
3.196,-0.858156
3.2,-0.88658
3.204,-0.881971
3.208,-0.793261
3.212,-0.773496
3.216,-0.709341
3.22,-0.699252
3.224,-0.740721
3.228,-0.77551
3.232,-0.707796
3.236,-0.658891
3.24,-0.65716
3.244,-0.652665
3.248,-0.587273
3.252,-0.600717
3.256,-0.582001
3.26,-0.509602
3.264,-0.519374
3.268,-0.460715
3.272,-0.432475
3.276,-0.475916
3.28,-0.415436
3.284,-0.291558
3.288,-0.393292
3.292,-0.412458
3.296,-0.370876
3.3,-0.247234
3.304,-0.217824
3.308,-0.19573
3.312,-0.099447
3.316,-0.26396
3.32,-0.080565
3.324,0.007758
3.328,-0.096591
3.332,-0.029043
3.336,-0.01754
3.34,0.005527
3.344,0.064025
3.348,0.181733
3.352,0.232148
3.356,0.153275
3.36,0.294963
3.364,0.230945
3.368,0.346099
3.372,0.282762
3.376,0.322732
3.38,0.362917
3.384,0.531736
3.388,0.443169
3.392,0.392689
3.396,0.50356
3.4,0.463662
3.404,0.483472
3.408,0.579133
3.412,0.560516
3.416,0.59764
3.42,0.60863
3.424,0.648426
3.428,0.675936
3.432,0.580336
3.436,0.732393
3.44,0.671208
3.444,0.668783
3.448,0.757893
3.452,0.784236
3.456,0.763876
3.46,0.857891
3.464,0.766276
3.468,0.829325
3.472,0.835943
3.476,0.877585
3.48,0.907785
3.484,0.856561
3.488,0.955459
3.492,0.933849
3.496,0.846708
3.5,0.853127
3.504,0.959326
3.508,0.956907
3.512,0.969916
3.516,0.979934
3.52,0.997964
3.524,1.038524
3.528,0.93914
3.532,0.938746
3.536,0.944421
3.54,1.014367
3.544,1.062093
3.548,0.977293
3.552,0.871881
3.556,0.908966
3.56,0.94881
3.564,0.95797
3.568,0.959934
3.572,0.975889
3.576,0.951093
3.58,1.010989
3.584,0.91569
3.588,0.896481
3.592,0.952792
3.596,0.840473
3.6,0.924312
3.604,0.896704
3.608,0.870143
3.612,0.942069
3.616,0.8159
3.62,0.933611
3.624,0.802154
3.628,0.731665
3.632,0.780378
3.636,0.70373
3.64,0.699925
3.644,0.736665
3.648,0.723241
3.652,0.642369
3.656,0.70025
3.66,0.685567
3.664,0.675747
3.668,0.606093
3.672,0.622958
3.676,0.435406
3.68,0.487728
3.684,0.433993
3.688,0.45659
3.692,0.394931
3.696,0.387686
3.7,0.462233
3.704,0.331434
3.708,0.332096
3.712,0.270996
3.716,0.257341
3.72,0.224572
3.724,0.217198
3.728,0.223382
3.732,0.21767
3.736,0.120843
3.74,0.104804
3.744,-0.01232
3.748,0.010685
3.752,0.031935
3.756,-0.001925
3.76,-0.064746
3.764,-0.061042
3.768,-0.110762
3.772,-0.105101
3.776,-0.180314
3.78,-0.242056
3.784,-0.236763
3.788,-0.429139
3.792,-0.292262
3.796,-0.522341
3.8,-0.454298
3.804,-0.373406
3.808,-0.399627
3.812,-0.50875
3.816,-0.512948
3.82,-0.435096
3.824,-0.553647
3.828,-0.44264
3.832,-0.579719
3.836,-0.58353
3.84,-0.546848
3.844,-0.644329
3.848,-0.723594
3.852,-0.700948
3.856,-0.718594
3.86,-0.80575
3.864,-0.770334
3.868,-0.813992
3.872,-0.749298
3.876,-0.811695
3.88,-0.844736
3.884,-0.85232
3.888,-0.851499
3.892,-0.846674
3.896,-0.941562
3.9,-0.956906
3.904,-0.862021
3.908,-0.949465
3.912,-1.010439
3.916,-0.927301
3.92,-0.935353
3.924,-1.043216
3.928,-0.962486
3.932,-0.943575
3.936,-0.967137
3.94,-0.958862
3.944,-1.064379
3.948,-0.980414
3.952,-1.013991
3.956,-1.023985
3.96,-0.956393
3.964,-0.925124
3.968,-0.907627
3.972,-0.928955
3.976,-0.996628
3.98,-0.96905
3.984,-0.942992
3.988,-0.969029
3.992,-0.961417
3.996,-0.918755
4.0,-0.954021
4.004,-0.97777
4.008,-0.951422
4.012,-0.88755
4.016,-0.906806
4.02,-0.876831
4.024,-0.84641
4.028,-0.883929
4.032,-0.811859
4.036,-0.814442
4.04,-0.87808
4.044,-0.726436
4.048,-0.805075
4.052,-0.843569
4.056,-0.793151
4.06,-0.771361
4.064,-0.696456
4.068,-0.690877
4.072,-0.67153
4.076,-0.600611
4.08,-0.590937
4.084,-0.567909
4.088,-0.53847
4.092,-0.502896
4.096,-0.613357
4.1,-0.499976
4.104,-0.56412
4.108,-0.426249
4.112,-0.400837
4.116,-0.320517
4.12,-0.285261
4.124,-0.30604
4.128,-0.312445
4.132,-0.234156
4.136,-0.255562
4.14,-0.19978
4.144,-0.120765
4.148,-0.168168
4.152,-0.070075
4.156,-0.046468
4.16,-0.097984
4.164,0.02859
4.168,0.044981
4.172,0.045298
4.176,0.032197
4.18,0.057401
4.184,0.103435
4.188,0.187287
4.192,0.142068
4.196,0.241245
4.2,0.186602
4.204,0.267581
4.208,0.312108
4.212,0.457445
4.216,0.294581
4.22,0.464974
4.224,0.426437
4.228,0.466694
4.232,0.478837
4.236,0.521511
4.24,0.51749
4.244,0.6233
4.248,0.552696
4.252,0.656529
4.256,0.591552
4.26,0.644043
4.264,0.616155
4.268,0.714592
4.272,0.785556
4.276,0.730241
4.28,0.744407
4.284,0.717977
4.288,0.780995
4.292,0.730852
4.296,0.782142
4.3,0.855667
4.304,0.926052
4.308,1.015554
4.312,0.859959
4.316,0.97444
4.32,0.927429
4.324,0.919412
4.328,0.959494
4.332,0.950998
4.336,0.962597
4.34,0.944965
4.344,0.902903
4.348,0.902169
4.352,1.017663
4.356,0.975921
4.36,0.963807
4.364,0.996988
4.368,1.038354
4.372,1.008762
4.376,0.967169
4.38,1.060604
4.384,1.076658
4.388,1.019928
4.392,1.04048
4.396,1.049589
4.4,1.038792
4.404,1.006895
4.408,0.999122
4.412,0.987322
4.416,0.897731
4.42,0.978027
4.424,0.864735
4.428,0.881483
4.432,0.97424
4.436,0.938095
4.44,0.956661
4.444,0.854112
4.448,0.794699
4.452,0.82413
4.456,0.824334
4.46,0.805516
4.464,0.839857
4.468,0.746003
4.472,0.761867
4.476,0.674355
4.48,0.725166
4.484,0.68103
4.488,0.620989
4.492,0.623694
4.496,0.602705
4.5,0.574277
4.504,0.651689
4.508,0.533025
4.512,0.500088
4.516,0.38128
4.52,0.414869
4.524,0.419436
4.528,0.370913
4.532,0.446538
4.536,0.34111
4.54,0.385366
4.544,0.295323
4.548,0.265128
4.552,0.229616
4.556,0.204823
4.56,0.260963
4.564,0.029274
4.568,0.015276
4.572,0.058189
4.576,0.05599
4.58,0.059635
4.584,0.018628
4.588,-0.054391
4.592,-0.014346
4.596,-0.04385
4.6,-0.11613
4.604,-0.10706
4.608,-0.17128
4.612,-0.242537
4.616,-0.208927
4.62,-0.267421
4.624,-0.30177
4.628,-0.256801
4.632,-0.481303
4.636,-0.457627
4.64,-0.473729
4.644,-0.459794
4.648,-0.481215
4.652,-0.570279
4.656,-0.570148
4.66,-0.589436
4.664,-0.44853
4.668,-0.505801
4.672,-0.640421
4.676,-0.661395
4.68,-0.723472
4.684,-0.783609
4.688,-0.715611
4.692,-0.780579
4.696,-0.755184
4.7,-0.850524
4.704,-0.827483
4.708,-0.800106
4.712,-0.806645
4.716,-0.82075
4.72,-0.923551
4.724,-0.829915
4.728,-0.926989
4.732,-0.868858
4.736,-0.913736
4.74,-0.993897
4.744,-0.951919
4.748,-0.928021
4.752,-0.92496
4.756,-0.971108
4.76,-0.895043
4.764,-0.927946
4.768,-0.996954
4.772,-0.95152
4.776,-0.896342
4.78,-0.898109
4.784,-1.05973
4.788,-1.045945
4.792,-0.925751
4.796,-1.05238
4.8,-1.064154
4.804,-1.019989
4.808,-0.971415
4.812,-0.993391
4.816,-1.015745
4.82,-1.010979
4.824,-1.006048
4.828,-1.006686
4.832,-0.840033
4.836,-0.929776
4.84,-0.889991
4.844,-0.94761
4.848,-0.920442
4.852,-0.933982
4.856,-1.017232
4.86,-0.939084
4.864,-0.945461
4.868,-0.951388
4.872,-0.881872
4.876,-0.738314
4.88,-0.78851
4.884,-0.702771
4.888,-0.727064
4.892,-0.688118
4.896,-0.751262
4.9,-0.65835
4.904,-0.625818
4.908,-0.668191
4.912,-0.587904
4.916,-0.563535
4.92,-0.594747
4.924,-0.598316
4.928,-0.5758
4.932,-0.486214
4.936,-0.447688
4.94,-0.476742
4.944,-0.408466
4.948,-0.353576
4.952,-0.323153
4.956,-0.248106
4.96,-0.233193
4.964,-0.318177
4.968,-0.154761
4.972,-0.236099
4.976,-0.127726
4.98,-0.146826
4.984,-0.140952
4.988,-0.180739
4.992,-0.06886
4.996,-0.108124
5.0,0.048365
5.004,0.105994
5.008,0.020436
5.012,0.105453
5.016,0.084075
5.02,0.118801
5.024,0.218695
5.028,0.207623
5.032,0.325923
5.036,0.244001
5.04,0.347008
5.044,0.330571
5.048,0.393851
5.052,0.359745
5.056,0.407318
5.06,0.431341
5.064,0.422235
5.068,0.523643
5.072,0.549106
5.076,0.571855
5.08,0.644117
5.084,0.664312
5.088,0.597134
5.092,0.658011
5.096,0.631074
5.1,0.685715
5.104,0.67623
5.108,0.808249
5.112,0.765798
5.116,0.756398
5.12,0.845969
5.124,0.696031
5.128,0.721399
5.132,0.878691
5.136,0.857953
5.14,0.882706
5.144,0.818326
5.148,0.897142
5.152,1.01132
5.156,0.964367
5.16,0.942814
5.164,0.922699
5.168,0.934386
5.172,0.856251
5.176,0.983313
5.18,1.019542
5.184,0.904436
5.188,0.9552
5.192,0.934553
5.196,0.947412
5.2,1.000701
5.204,0.895246
5.208,1.03071
5.212,1.037311
5.216,0.985775
5.22,0.872098
5.224,0.943211
5.228,1.050671
5.232,0.845222
5.236,0.960945
5.24,0.912632
5.244,1.004287
5.248,0.921852
5.252,0.966486
5.256,0.964382
5.26,1.016888
5.264,0.903057
5.268,0.919303
5.272,0.812726
5.276,0.93217
5.28,0.819501
5.284,0.813586
5.288,0.823843
5.292,0.729393
5.296,0.800823
5.3,0.818887
5.304,0.765588
5.308,0.651242
5.312,0.703577
5.316,0.725304
5.32,0.572112
5.324,0.589477
5.328,0.663661
5.332,0.609393
5.336,0.592
5.34,0.639369
5.344,0.544318
5.348,0.527807
5.352,0.604022
5.356,0.430941
5.36,0.374481
5.364,0.408133
5.368,0.380709
5.372,0.304113
5.376,0.250218
5.38,0.388444
5.384,0.26016
5.388,0.177848
5.392,0.230708
5.396,0.149736
5.4,0.112689
5.404,0.123473
5.408,0.000705
5.412,0.05281
5.416,0.100674
5.42,-0.001821
5.424,-0.074074
5.428,-0.110703
5.432,-0.13587
5.436,-0.157952
5.44,-0.193913
5.444,-0.158817
5.448,-0.320717
5.452,-0.220167
5.456,-0.311223
5.46,-0.302096
5.464,-0.405707
5.468,-0.311021
5.472,-0.342924
5.476,-0.38461
5.48,-0.535318
5.484,-0.444696
5.488,-0.49204
5.492,-0.618211
5.496,-0.564337
5.5,-0.569559
5.504,-0.58411
5.508,-0.626622
5.512,-0.643918
5.516,-0.607194
5.52,-0.641348
5.524,-0.867139
5.528,-0.760137
5.532,-0.772299
5.536,-0.870778
5.54,-0.796858
5.544,-0.756794
5.548,-0.890481
5.552,-0.835492
5.556,-0.913487
5.56,-0.915887
5.564,-0.822214
5.568,-0.93619
5.572,-0.898102
5.576,-1.026087
5.58,-0.849875
5.584,-0.922465
5.588,-0.970464
5.592,-0.940428
5.596,-1.046681
5.6,-0.923161
5.604,-1.00369
5.608,-1.002
5.612,-1.019783
5.616,-1.026731
5.62,-0.964556
5.624,-0.987176
5.628,-0.967157
5.632,-0.999047
5.636,-0.970903
5.64,-1.014554
5.644,-0.87827
5.648,-1.063398
5.652,-0.916303
5.656,-0.904413
5.66,-1.00799
5.664,-0.845613
5.668,-0.898127
5.672,-0.889308
5.676,-0.925573
5.68,-0.926102
5.684,-0.913146
5.688,-0.869762
5.692,-0.805034
5.696,-0.851036
5.7,-0.8899
5.704,-0.786565
5.708,-0.764434
5.712,-0.759727
5.716,-0.736433
5.72,-0.767798
5.724,-0.780559
5.728,-0.756709
5.732,-0.773614
5.736,-0.657906
5.74,-0.651228
5.744,-0.64577
5.748,-0.747699
5.752,-0.637885
5.756,-0.494555
5.76,-0.558406
5.764,-0.481245
5.768,-0.542454
5.772,-0.3742
5.776,-0.426146
5.78,-0.376872
5.784,-0.247157
5.788,-0.259366
5.792,-0.321954
5.796,-0.307445
5.8,-0.264967
5.804,-0.193875
5.808,-0.195111
5.812,-0.179919
5.816,-0.056959
5.82,-0.106072
5.824,0.044666
5.828,-0.035664
5.832,0.079213
5.836,0.037971
5.84,0.098392
5.844,0.044108
5.848,0.067671
5.852,0.163264
5.856,0.2195
5.86,0.201723
5.864,0.164847
5.868,0.190401
5.872,0.216071
5.876,0.227798
5.88,0.350117
5.884,0.429046
5.888,0.399934
5.892,0.315031
5.896,0.445572
5.9,0.473614
5.904,0.612759
5.908,0.460846
5.912,0.539427
5.916,0.669004
5.92,0.630429
5.924,0.659762
5.928,0.660417
5.932,0.693681
5.936,0.737945
5.94,0.679835
5.944,0.784801
5.948,0.692164
5.952,0.796456
5.956,0.807489
5.96,0.785525
5.964,0.83225
5.968,0.818545
5.972,0.811601
5.976,0.862233
5.98,0.838642
5.984,0.923096
5.988,0.861741
5.992,0.966298
5.996,0.882232
6.0,0.922742
6.004,0.928712
6.008,1.034212
6.012,0.991602
6.016,0.970746
6.02,1.011622
6.024,0.885782
6.028,0.992539
6.032,1.097221
6.036,1.005705
6.04,1.003317
6.044,1.027252
6.048,1.04364
6.052,0.897093
6.056,0.91005
6.06,1.000976
6.064,0.950112
6.068,1.045955
6.072,0.958201
6.076,0.869954
6.08,0.895121
6.084,0.812007
6.088,0.927891
6.092,0.919429
6.096,0.896032
6.1,0.958771
6.104,0.951502
6.108,0.868995
6.112,0.75592
6.116,0.877875
6.12,0.858364
6.124,0.828895
6.128,0.84459
6.132,0.718641
6.136,0.85798
6.14,0.689542
6.144,0.754274
6.148,0.611094
6.152,0.626964
6.156,0.726699
6.16,0.614646
6.164,0.645928
6.168,0.59147
6.172,0.549538
6.176,0.597638
6.18,0.49179
6.184,0.388306
6.188,0.410466
6.192,0.451063
6.196,0.41577
6.2,0.289772
6.204,0.303703
6.208,0.28232
6.212,0.264336
6.216,0.18476
6.22,0.192852
6.224,0.158352
6.228,0.203693
6.232,0.175757
6.236,0.098071
6.24,0.055725
6.244,0.05222
6.248,-0.02575
6.252,-0.072421
6.256,-0.092235
6.26,-0.107067
6.264,-0.163535
6.268,-0.127198
6.272,-0.128631
6.276,-0.274137
6.28,-0.223014
6.284,-0.264552
6.288,-0.265534
6.292,-0.312053
6.296,-0.4126
6.3,-0.431244
6.304,-0.394523
6.308,-0.372065
6.312,-0.561338
6.316,-0.460056
6.32,-0.444142
6.324,-0.537097
6.328,-0.527276
6.332,-0.614776
6.336,-0.6099
6.34,-0.708737
6.344,-0.768097
6.348,-0.626339
6.352,-0.744711
6.356,-0.73959
6.36,-0.806835
6.364,-0.828041
6.368,-0.785574
6.372,-0.831995
6.376,-0.794527
6.38,-0.807969
6.384,-0.830968
6.388,-0.850725
6.392,-0.798626
6.396,-0.944956
6.4,-0.907574
6.404,-0.86062
6.408,-0.865621
6.412,-1.010685
6.416,-0.965109
6.42,-0.890616
6.424,-0.941277
6.428,-0.964197
6.432,-0.991238
6.436,-1.005046
6.44,-0.97605
6.444,-1.006785
6.448,-0.999095
6.452,-0.99493
6.456,-1.033749
6.46,-0.973315
6.464,-0.853375
6.468,-1.086194
6.472,-0.978495
6.476,-1.029151
6.48,-0.957816
6.484,-0.979005
6.488,-0.936995
6.492,-0.90918
6.496,-0.950321
6.5,-0.894454
6.504,-1.058521
6.508,-0.851176
6.512,-0.900492
6.516,-0.853064
6.52,-0.954835
6.524,-0.921453
6.528,-0.85789
6.532,-0.850524
6.536,-0.819231
6.54,-0.762113
6.544,-0.886812
6.548,-0.731346
6.552,-0.7604
6.556,-0.751087
6.56,-0.793865
6.564,-0.673912
6.568,-0.79789
6.572,-0.622268
6.576,-0.706202
6.58,-0.605257
6.584,-0.58967
6.588,-0.500484
6.592,-0.542636
6.596,-0.542666
6.6,-0.507084
6.604,-0.391466
6.608,-0.401237
6.612,-0.419886
6.616,-0.384616
6.62,-0.423002
6.624,-0.296755
6.628,-0.375418
6.632,-0.220825
6.636,-0.222735
6.64,-0.080362
6.644,-0.225079
6.648,-0.145412
6.652,-0.020444
6.656,-0.020769
6.66,-0.085055
6.664,-0.008906
6.668,0.010153
6.672,0.054299
6.676,0.03538
6.68,0.095896
6.684,0.050416
6.688,0.166913
6.692,0.212351
6.696,0.207998
6.7,0.167937
6.704,0.327211
6.708,0.324852
6.712,0.298888
6.716,0.349416
6.72,0.31634
6.724,0.367675
6.728,0.419245
6.732,0.534341
6.736,0.467299
6.74,0.557185
6.744,0.523681
6.748,0.587917
6.752,0.592848
6.756,0.667423
6.76,0.620315
6.764,0.591127
6.768,0.622743
6.772,0.686706
6.776,0.671656
6.78,0.774762
6.784,0.750419
6.788,0.91119
6.792,0.723606
6.796,0.837968
6.8,0.78793
6.804,0.835432
6.808,0.882164
6.812,0.77302
6.816,0.914517
6.82,1.010387
6.824,0.904303
6.828,0.950855
6.832,0.999148
6.836,0.948879
6.84,0.936334
6.844,0.859021
6.848,1.0114
6.852,0.979343
6.856,0.939122
6.86,0.999941
6.864,0.967379
6.868,0.972186
6.872,1.030059
6.876,0.933052
6.88,1.051655
6.884,0.927814
6.888,0.962065
6.892,1.087944
6.896,1.043859
6.9,0.987167
6.904,0.929164
6.908,0.942742
6.912,0.965002
6.916,0.954474
6.92,0.938447
6.924,0.930984
6.928,0.910494
6.932,0.836963
6.936,0.870258
6.94,0.928022
6.944,0.799279
6.948,0.842834
6.952,0.795164
6.956,0.8248
6.96,0.782135
6.964,0.857042
6.968,0.789395
6.972,0.678675
6.976,0.757348
6.98,0.663917
6.984,0.652024
6.988,0.67417
6.992,0.610898
6.996,0.656556
7.0,0.54906
7.004,0.532175
7.008,0.505129
7.012,0.484001
7.016,0.541112
7.02,0.49102
7.024,0.518087
7.028,0.518588
7.032,0.325917
7.036,0.352878
7.04,0.262134
7.044,0.253358
7.048,0.231763
7.052,0.181199
7.056,0.152038
7.06,0.167809
7.064,0.084418
7.068,0.15746
7.072,0.03946
7.076,0.195742
7.08,0.002561
7.084,-0.001426
7.088,-0.099946
7.092,0.020006
7.096,-0.039384
7.1,-0.110487
7.104,-0.222533
7.108,-0.174379
7.112,-0.270534
7.116,-0.1707
7.12,-0.232492
7.124,-0.297066
7.128,-0.452267
7.132,-0.40793
7.136,-0.352355
7.14,-0.353731
7.144,-0.386173
7.148,-0.548086
7.152,-0.479835
7.156,-0.470115
7.16,-0.629311
7.164,-0.571797
7.168,-0.582196
7.172,-0.634872
7.176,-0.735823
7.18,-0.682297
7.184,-0.704568
7.188,-0.717171
7.192,-0.75886
7.196,-0.773092
7.2,-0.772499
7.204,-0.767261
7.208,-0.822759
7.212,-0.845438
7.216,-0.837006
7.22,-0.953572
7.224,-0.848798
7.228,-0.887007
7.232,-0.898516
7.236,-0.865168
7.24,-1.022718
7.244,-1.0348
7.248,-0.932599
7.252,-0.955964
7.256,-0.955549
7.26,-0.994738
7.264,-0.945104
7.268,-0.937489
7.272,-0.964827
7.276,-1.006073
7.28,-1.101518
7.284,-0.959868
7.288,-0.938531
7.292,-0.967769
7.296,-1.043448
7.3,-0.964337
7.304,-0.952653
7.308,-0.914486
7.312,-1.032077
7.316,-0.994539
7.32,-0.939905
7.324,-0.96756
7.328,-1.018577
7.332,-0.933384
7.336,-0.915718
7.34,-0.929931
7.344,-0.912177
7.348,-0.92408
7.352,-0.82439
7.356,-0.929681
7.36,-0.89955
7.364,-0.854381
7.368,-0.794951
7.372,-0.896973
7.376,-0.870077
7.38,-0.888175
7.384,-0.765665
7.388,-0.803528
7.392,-0.746473
7.396,-0.673149
7.4,-0.716624
7.404,-0.65069
7.408,-0.654325
7.412,-0.582276
7.416,-0.568088
7.42,-0.601866
7.424,-0.55061
7.428,-0.464406
7.432,-0.47087
7.436,-0.533886
7.44,-0.404335
7.444,-0.464026
7.448,-0.311477
7.452,-0.302858
7.456,-0.311206
7.46,-0.28918
7.464,-0.278564
7.468,-0.205014
7.472,-0.228089
7.476,-0.168191
7.48,-0.106629
7.484,-0.148435
7.488,-0.121164
7.492,-0.12
7.496,-0.083378
7.5,-0.09142
7.504,0.066646
7.508,0.150728
7.512,0.161621
7.516,0.039041
7.52,0.186468
7.524,0.251075
7.528,0.18671
7.532,0.244013
7.536,0.167718
7.54,0.310378
7.544,0.272522
7.548,0.364044
7.552,0.304043
7.556,0.436939
7.56,0.488341
7.564,0.424879
7.568,0.433693
7.572,0.408792
7.576,0.528857
7.58,0.538189
7.584,0.514293
7.588,0.638532
7.592,0.61686
7.596,0.608467
7.6,0.656818
7.604,0.759783
7.608,0.757393
7.612,0.741111
7.616,0.798255
7.62,0.728243
7.624,0.806181
7.628,0.82947
7.632,0.815407
7.636,0.876703
7.64,0.831162
7.644,0.910137
7.648,0.925897
7.652,0.765287
7.656,0.982672
7.66,0.781947
7.664,0.913849
7.668,1.005382
7.672,0.946846
7.676,0.897121
7.68,0.922581
7.684,1.034562
7.688,0.892196
7.692,1.048876
7.696,0.992924
7.7,0.938407
7.704,0.970311
7.708,0.949136
7.712,1.042929
7.716,1.034951
7.72,0.910176
7.724,0.972852
7.728,0.945867
7.732,1.048797
7.736,0.910816
7.74,1.051843
7.744,0.962394
7.748,0.897511
7.752,0.912425
7.756,0.896028
7.76,0.861346
7.764,0.917946
7.768,0.839105
7.772,0.77796
7.776,0.853666
7.78,0.767384
7.784,0.804016
7.788,0.779501
7.792,0.763976
7.796,0.889432
7.8,0.773334
7.804,0.76321
7.808,0.641867
7.812,0.677069
7.816,0.698968
7.82,0.614785
7.824,0.688618
7.828,0.559699
7.832,0.58157
7.836,0.542099
7.84,0.55461
7.844,0.488866
7.848,0.481368
7.852,0.456679
7.856,0.404912
7.86,0.43863
7.864,0.398663
7.868,0.354328
7.872,0.308926
7.876,0.341665
7.88,0.26116
7.884,0.228483
7.888,0.219697
7.892,0.269741
7.896,0.088175
7.9,0.163826
7.904,0.000701
7.908,0.076162
7.912,0.113933
7.916,0.02946
7.92,-0.016599
7.924,-0.083286
7.928,-0.083795
7.932,-0.127956
7.936,-0.184553
7.94,-0.189517
7.944,-0.194714
7.948,-0.272417
7.952,-0.303581
7.956,-0.36025
7.96,-0.301407
7.964,-0.322091
7.968,-0.36587
7.972,-0.356947
7.976,-0.428196
7.98,-0.439979
7.984,-0.47096
7.988,-0.51686
7.992,-0.564488
7.996,-0.452415
8.0,-0.610383
8.004,-0.645208
8.008,-0.613785
8.012,-0.645887
8.016,-0.751114
8.02,-0.646516
8.024,-0.728496
8.028,-0.799811
8.032,-0.704627
8.036,-0.751889
8.04,-0.864794
8.044,-0.730373
8.048,-0.803212
8.052,-0.852822
8.056,-0.788185
8.06,-0.874326
8.064,-0.897488
8.068,-0.942077
8.072,-0.89212
8.076,-0.908695
8.08,-0.942257
8.084,-0.992097
8.088,-0.954842
8.092,-0.972695
8.096,-1.042864
8.1,-1.055878
8.104,-0.959233
8.108,-1.121891
8.112,-0.98493
8.116,-1.021603
8.12,-0.933877
8.124,-1.024645
8.128,-0.96677
8.132,-1.018453
8.136,-0.990875
8.14,-0.956769
8.144,-1.012884
8.148,-0.935173
8.152,-1.029035
8.156,-0.958079
8.16,-0.91925
8.164,-0.924075
8.168,-0.85208
8.172,-0.976037
8.176,-0.995932
8.18,-0.964958
8.184,-0.869653
8.188,-0.864393
8.192,-0.86998
8.196,-0.91625
8.2,-0.805985
8.204,-0.889021
8.208,-0.752544
8.212,-0.649588
8.216,-0.755385
8.22,-0.725096
8.224,-0.758752
8.228,-0.80381
8.232,-0.721977
8.236,-0.724398
8.24,-0.719406
8.244,-0.537652
8.248,-0.586275
8.252,-0.556535
8.256,-0.566048
8.26,-0.533818
8.264,-0.451047
8.268,-0.474537
8.272,-0.419601
8.276,-0.428745
8.28,-0.408481
8.284,-0.433792
8.288,-0.434076
8.292,-0.319704
8.296,-0.274959
8.3,-0.312996
8.304,-0.221093
8.308,-0.187162
8.312,-0.267957
8.316,-0.176075
8.32,-0.079999
8.324,-0.050961
8.328,-0.097885
8.332,-0.002131
8.336,0.071225
8.34,0.089098
8.344,0.075574
8.348,0.08696
8.352,0.108812
8.356,0.193463
8.36,0.209465
8.364,0.260637
8.368,0.265008
8.372,0.328366
8.376,0.320909
8.38,0.383877
8.384,0.416335
8.388,0.360379
8.392,0.337645
8.396,0.532284
8.4,0.494587
8.404,0.422235
8.408,0.498012
8.412,0.597555
8.416,0.569727
8.42,0.582327
8.424,0.70164
8.428,0.602324
8.432,0.637277
8.436,0.709634
8.44,0.739832
8.444,0.765716
8.448,0.806376
8.452,0.789966
8.456,0.823021
8.46,0.803379
8.464,0.836519
8.468,0.855049
8.472,0.875941
8.476,0.918541
8.48,0.921599
8.484,0.909167
8.488,0.878789
8.492,0.934082
8.496,0.939905
8.5,0.960716
8.504,1.070269
8.508,0.941766
8.512,0.996202
8.516,1.034756
8.52,0.991586
8.524,1.108034
8.528,0.975794
8.532,1.01355
8.536,0.959147
8.54,0.982345
8.544,1.012292
8.548,1.041175
8.552,1.012921
8.556,1.057122
8.56,0.985713
8.564,0.969248
8.568,1.115553
8.572,0.993672
8.576,0.930706
8.58,0.923809
8.584,0.902357
8.588,0.986426
8.592,0.910629
8.596,0.923623
8.6,0.901652
8.604,0.928151
8.608,0.835177
8.612,0.808876
8.616,0.858225
8.62,0.860644
8.624,0.830052
8.628,0.755043
8.632,0.810757
8.636,0.720349
8.64,0.711436
8.644,0.669616
8.648,0.760519
8.652,0.705148
8.656,0.68113
8.66,0.690052
8.664,0.744564
8.668,0.494161
8.672,0.517868
8.676,0.498637
8.68,0.461082
8.684,0.423464
8.688,0.435646
8.692,0.362674
8.696,0.412746
8.7,0.370709
8.704,0.363971
8.708,0.336793
8.712,0.31276
8.716,0.234885
8.72,0.330328
8.724,0.206504
8.728,0.071992
8.732,0.085182
8.736,0.018336
8.74,0.076194
8.744,0.039133
8.748,-0.008342
8.752,0.085467
8.756,-0.017774
8.76,-0.039022
8.764,-0.151915
8.768,-0.185258
8.772,-0.163276
8.776,-0.186132
8.78,-0.317086
8.784,-0.262571
8.788,-0.281906
8.792,-0.322164
8.796,-0.38059
8.8,-0.395101
8.804,-0.404837
8.808,-0.418964
8.812,-0.420389
8.816,-0.4233
8.82,-0.518341
8.824,-0.552253
8.828,-0.532904
8.832,-0.54908
8.836,-0.625642
8.84,-0.588172
8.844,-0.601901
8.848,-0.608893
8.852,-0.606545
8.856,-0.760134
8.86,-0.736818
8.864,-0.756978
8.868,-0.781786
8.872,-0.827979
8.876,-0.887704
8.88,-0.825962
8.884,-0.885428
8.888,-0.858355
8.892,-0.917217
8.896,-0.946559
8.9,-0.893112
8.904,-0.909709
8.908,-0.899884
8.912,-0.830304
8.916,-0.935627
8.92,-0.934268
8.924,-1.020559
8.928,-1.038306
8.932,-0.901212
8.936,-1.03203
8.94,-1.042659
8.944,-0.996121
8.948,-1.001476
8.952,-1.043985
8.956,-1.015094
8.96,-0.938452
8.964,-1.039387
8.968,-1.067029
8.972,-0.947566
8.976,-0.966527
8.98,-1.017712
8.984,-1.060441
8.988,-1.012319
8.992,-0.97069
8.996,-0.901659
9.0,-1.002886
9.004,-0.945532
9.008,-0.896942
9.012,-1.038309
9.016,-0.855267
9.02,-0.952964
9.024,-0.863314
9.028,-0.852852
9.032,-0.795443
9.036,-0.805838
9.04,-0.935204
9.044,-0.83779
9.048,-0.773127
9.052,-0.770563
9.056,-0.717018
9.06,-0.680841
9.064,-0.668642
9.068,-0.687898
9.072,-0.747005
9.076,-0.65437
9.08,-0.587112
9.084,-0.638234
9.088,-0.527398
9.092,-0.488283
9.096,-0.501616
9.1,-0.634943
9.104,-0.519014
9.108,-0.333743
9.112,-0.427932
9.116,-0.472001
9.12,-0.282881
9.124,-0.315511
9.128,-0.23218
9.132,-0.244566
9.136,-0.206238
9.14,-0.18156
9.144,-0.135197
9.148,-0.026408
9.152,-0.061808
9.156,-0.159355
9.16,-0.027911
9.164,0.036969
9.168,0.070188
9.172,0.018871
9.176,0.128561
9.18,0.146749
9.184,0.258944
9.188,0.122657
9.192,0.164479
9.196,0.204063
9.2,0.224179
9.204,0.233283
9.208,0.168492
9.212,0.313454
9.216,0.381914
9.22,0.366713
9.224,0.515714
9.228,0.446804
9.232,0.537471
9.236,0.512345
9.24,0.566495
9.244,0.564559
9.248,0.643958
9.252,0.602715
9.256,0.648577
9.26,0.665373
9.264,0.655339
9.268,0.71209
9.272,0.825019
9.276,0.720589
9.28,0.775225
9.284,0.836596
9.288,0.849473
9.292,0.811078
9.296,0.708617
9.3,0.870163
9.304,0.749128
9.308,0.94859
9.312,0.897762
9.316,0.952659
9.32,0.870136
9.324,0.849349
9.328,0.950902
9.332,0.946222
9.336,0.9325
9.34,0.969615
9.344,1.11118
9.348,1.021076
9.352,1.037476
9.356,1.031953
9.36,1.067584
9.364,0.987059
9.368,0.895869
9.372,0.990315
9.376,1.040558
9.38,0.950799
9.384,0.98888
9.388,0.960612
9.392,1.066898
9.396,1.024964
9.4,1.014864
9.404,1.00727
9.408,0.967343
9.412,0.971216
9.416,0.893339
9.42,0.833668
9.424,0.94003
9.428,0.937412
9.432,0.969525
9.436,0.974651
9.44,0.960791
9.444,0.817795
9.448,0.834698
9.452,0.860169
9.456,0.945827
9.46,0.875572
9.464,0.839143
9.468,0.744677
9.472,0.700105
9.476,0.763232
9.48,0.647617
9.484,0.668952
9.488,0.65274
9.492,0.715131
9.496,0.594179
9.5,0.465823
9.504,0.588345
9.508,0.502996
9.512,0.514414
9.516,0.481817
9.52,0.445895
9.524,0.472106
9.528,0.328562
9.532,0.351602
9.536,0.383559
9.54,0.290239
9.544,0.211798
9.548,0.296695
9.552,0.290211
9.556,0.202383
9.56,0.076981
9.564,0.180553
9.568,0.032359
9.572,0.100787
9.576,0.010891
9.58,-0.032862
9.584,-0.027122
9.588,-0.044343
9.592,-0.097509
9.596,-0.065924
9.6,-0.147637
9.604,-0.106184
9.608,-0.170853
9.612,-0.24934
9.616,-0.287115
9.62,-0.355327
9.624,-0.287301
9.628,-0.348178
9.632,-0.477369
9.636,-0.413529
9.64,-0.459427
9.644,-0.362847
9.648,-0.553624
9.652,-0.56698
9.656,-0.465392
9.66,-0.478556
9.664,-0.60865
9.668,-0.627493
9.672,-0.589022
9.676,-0.75957
9.68,-0.759072
9.684,-0.702239
9.688,-0.632273
9.692,-0.752473
9.696,-0.745895
9.7,-0.713824
9.704,-0.68404
9.708,-0.83638
9.712,-0.825798
9.716,-0.750521
9.72,-0.933637
9.724,-0.82127
9.728,-0.937894
9.732,-0.895377
9.736,-0.925335
9.74,-0.972978
9.744,-0.985264
9.748,-0.932468
9.752,-0.905831
9.756,-0.970545
9.76,-0.968126
9.764,-0.949763
9.768,-1.032702
9.772,-0.952042
9.776,-0.952064
9.78,-0.865952
9.784,-1.017135
9.788,-1.022522
9.792,-0.961549
9.796,-0.958511
9.8,-1.024781
9.804,-1.015838
9.808,-0.96537
9.812,-1.02965
9.816,-1.003743
9.82,-0.972788
9.824,-0.920634
9.828,-0.992941
9.832,-1.046234
9.836,-1.040481
9.84,-0.9973
9.844,-0.988815
9.848,-0.918875
9.852,-0.957748
9.856,-0.919784
9.86,-0.908888
9.864,-0.876955
9.868,-0.772773
9.872,-0.789007
9.876,-0.803756
9.88,-0.80934
9.884,-0.788961
9.888,-0.731225
9.892,-0.698037
9.896,-0.751599
9.9,-0.682723
9.904,-0.763835
9.908,-0.628773
9.912,-0.577774
9.916,-0.605848
9.92,-0.476443
9.924,-0.58624
9.928,-0.505721
9.932,-0.49233
9.936,-0.469053
9.94,-0.442832
9.944,-0.40444
9.948,-0.339705
9.952,-0.285176
9.956,-0.325813
9.96,-0.256276
9.964,-0.303201
9.968,-0.200642
9.972,-0.24765
9.976,-0.125437
9.98,-0.039694
9.984,-0.126449
9.988,-0.199982
9.992,-0.087686
9.996,0.031439
10.0,0.027654
10.004,0.0426
10.008,0.110715
10.012,0.114577
10.016,0.181231
10.02,0.196197
10.024,0.256055
10.028,0.22749
10.032,0.284203
10.036,0.252756
10.04,0.266969
10.044,0.411039
10.048,0.364873
10.052,0.422347
10.056,0.415983
10.06,0.40779
10.064,0.464587
10.068,0.562338
10.072,0.544355
10.076,0.456604
10.08,0.556507
10.084,0.680959
10.088,0.605192
10.092,0.549335
10.096,0.756906
10.1,0.718667
10.104,0.702717
10.108,0.708675
10.112,0.80173
10.116,0.7402
10.12,0.843701
10.124,0.831672
10.128,0.834338
10.132,0.846174
10.136,0.846182
10.14,0.922466
10.144,0.841379
10.148,0.817208
10.152,0.941867
10.156,0.954718
10.16,0.958341
10.164,0.965038
10.168,0.938088
10.172,1.002085
10.176,0.968153
10.18,0.952912
10.184,0.967622
10.188,1.089303
10.192,0.905678
10.196,1.020669
10.2,0.914071
10.204,0.994055
10.208,0.978315
10.212,0.895366
10.216,1.017782
10.22,0.977132
10.224,0.888071
10.228,1.031005
10.232,1.055872
10.236,1.052828
10.24,0.98958
10.244,0.966361
10.248,1.022016
10.252,1.030408
10.256,0.992787
10.26,0.878
10.264,0.923272
10.268,0.922477
10.272,0.796498
10.276,0.896118
10.28,0.971176
10.284,0.873621
10.288,0.898626
10.292,0.816683
10.296,0.785723
10.3,0.789577
10.304,0.71015
10.308,0.682498
10.312,0.773083
10.316,0.75682
10.32,0.616457
10.324,0.691615
10.328,0.615486
10.332,0.612879
10.336,0.594412
10.34,0.596112
10.344,0.525026
10.348,0.565421
10.352,0.483956
10.356,0.47284
10.36,0.372712
10.364,0.494676
10.368,0.38225
10.372,0.366098
10.376,0.221428
10.38,0.231817
10.384,0.305712
10.388,0.228807
10.392,0.089223
10.396,0.207108
10.4,0.098144
10.404,0.165925
10.408,0.060907
10.412,0.045414
10.416,0.063974
10.42,-0.070005
10.424,-0.104906
10.428,-0.095172
10.432,-0.073995
10.436,-0.211798
10.44,-0.258425
10.444,-0.163447
10.448,-0.264205
10.452,-0.282878
10.456,-0.385079
10.46,-0.354893
10.464,-0.349736
10.468,-0.330934
10.472,-0.443767
10.476,-0.349721
10.48,-0.493808
10.484,-0.520307
10.488,-0.435415
10.492,-0.527374
10.496,-0.590724
10.5,-0.595542
10.504,-0.54426
10.508,-0.562175
10.512,-0.699319
10.516,-0.682996
10.52,-0.698142
10.524,-0.773099
10.528,-0.747049
10.532,-0.7638
10.536,-0.726162
10.54,-0.741196
10.544,-0.835693
10.548,-0.84685
10.552,-0.819097
10.556,-0.896955
10.56,-0.852859
10.564,-0.900479
10.568,-0.957532
10.572,-0.969054
10.576,-0.860173
10.58,-0.950812
10.584,-0.87058
10.588,-0.98702
10.592,-0.954645
10.596,-0.856556
10.6,-1.035157
10.604,-1.082382
10.608,-0.927467
10.612,-1.036541
10.616,-0.998734
10.62,-1.028585
10.624,-0.986563
10.628,-1.047271
10.632,-1.007605
10.636,-0.974072
10.64,-1.044027
10.644,-1.024761
10.648,-1.00237
10.652,-1.050791
10.656,-0.993936
10.66,-0.959442
10.664,-0.977054
10.668,-0.961471
10.672,-0.93886
10.676,-0.959762
10.68,-0.880688
10.684,-0.830877
10.688,-0.912508
10.692,-0.850833
10.696,-0.872083
10.7,-0.826054
10.704,-0.749497
10.708,-0.785059
10.712,-0.881131
10.716,-0.751008
10.72,-0.692608
10.724,-0.745189
10.728,-0.663518
10.732,-0.726347
10.736,-0.74403
10.74,-0.639998
10.744,-0.711594
10.748,-0.611906
10.752,-0.511177
10.756,-0.646085
10.76,-0.589149
10.764,-0.550876
10.768,-0.476086
10.772,-0.464421
10.776,-0.348988
10.78,-0.343656
10.784,-0.338683
10.788,-0.327907
10.792,-0.286964
10.796,-0.320883
10.8,-0.205829
10.804,-0.274972
10.808,-0.148081
10.812,-0.10085
10.816,-0.119775
10.82,-0.109172
10.824,-0.050298
10.828,-0.183277
10.832,0.00506
10.836,0.014437
10.84,0.047713
10.844,0.115665
10.848,0.10662
10.852,0.083269
10.856,0.163002
10.86,0.203088
10.864,0.234913
10.868,0.26651
10.872,0.339396
10.876,0.261877
10.88,0.353428
10.884,0.43729
10.888,0.313874
10.892,0.437034
10.896,0.425841
10.9,0.463218
10.904,0.462719
10.908,0.525226
10.912,0.651024
10.916,0.52049
10.92,0.54945
10.924,0.5665
10.928,0.741059
10.932,0.654067
10.936,0.697783
10.94,0.70017
10.944,0.693677
10.948,0.749056
10.952,0.90295
10.956,0.868155
10.96,0.773692
10.964,0.865763
10.968,0.808096
10.972,0.776368
10.976,0.93089
10.98,0.951846
10.984,0.959258
10.988,0.895752
10.992,0.92236
10.996,0.978794
11.0,0.970631
11.004,0.94026
11.008,0.887001
11.012,0.980781
11.016,1.035283
11.02,0.926807
11.024,1.023079
11.028,1.011273
11.032,1.034852
11.036,1.042686
11.04,0.965198
11.044,0.918997
11.048,0.972184
11.052,1.041423
11.056,0.967066
11.06,0.955759
11.064,0.894788
11.068,1.067986
11.072,1.015246
11.076,1.005175
11.08,1.006908
11.084,0.978327
11.088,0.927381
11.092,0.92066
11.096,0.895877
11.1,1.036564
11.104,0.919372
11.108,0.854325
11.112,0.88593
11.116,0.796467
11.12,0.905821
11.124,0.780372
11.128,0.82057
11.132,0.830181
11.136,0.776781
11.14,0.742237
11.144,0.717353
11.148,0.692639
11.152,0.644642
11.156,0.628406
11.16,0.701671
11.164,0.598505
11.168,0.540333
11.172,0.528971
11.176,0.584464
11.18,0.537404
11.184,0.505359
11.188,0.437752
11.192,0.452172
11.196,0.363816
11.2,0.355144
11.204,0.38841
11.208,0.35512
11.212,0.233514
11.216,0.210779
11.22,0.229706
11.224,0.281089
11.228,0.069338
11.232,0.149217
11.236,0.036559
11.24,0.04361
11.244,0.027002
11.248,-0.005946
11.252,-0.041769
11.256,-0.044863
11.26,-0.10209
11.264,-0.178484
11.268,-0.096307
11.272,-0.127473
11.276,-0.152623
11.28,-0.301307
11.284,-0.238609
11.288,-0.24881
11.292,-0.362966
11.296,-0.339461
11.3,-0.373938
11.304,-0.303887
11.308,-0.327279
11.312,-0.533846
11.316,-0.352646
11.32,-0.549384
11.324,-0.480412
11.328,-0.506261
11.332,-0.629407
11.336,-0.579268
11.34,-0.633068
11.344,-0.623164
11.348,-0.661943
11.352,-0.635644
11.356,-0.713043
11.36,-0.745907
11.364,-0.702739
11.368,-0.747862
11.372,-0.758925
11.376,-0.846655
11.38,-0.882859
11.384,-0.875397
11.388,-0.893696
11.392,-0.838205
11.396,-0.842777
11.4,-0.912584
11.404,-0.845709
11.408,-0.860425
11.412,-0.927427
11.416,-0.990586
11.42,-0.879753
11.424,-0.969731
11.428,-0.967652
11.432,-0.997334
11.436,-1.030345
11.44,-1.063893
11.444,-0.962523
11.448,-1.036136
11.452,-0.845884
11.456,-1.054149
11.46,-1.06279
11.464,-0.97358
11.468,-0.920879
11.472,-0.991466
11.476,-0.962529
11.48,-1.078863
11.484,-1.015209
11.488,-1.028768
11.492,-1.062707
11.496,-0.954093
11.5,-1.063198
11.504,-1.007415
11.508,-0.957558
11.512,-0.96081
11.516,-0.887135
11.52,-0.878562
11.524,-0.835224
11.528,-0.827567
11.532,-0.792631
11.536,-0.83348
11.54,-0.801166
11.544,-0.772976
11.548,-0.772955
11.552,-0.780674
11.556,-0.757521
11.56,-0.761187
11.564,-0.677984
11.568,-0.681885
11.572,-0.687847
11.576,-0.664709
11.58,-0.66845
11.584,-0.534769
11.588,-0.55503
11.592,-0.576843
11.596,-0.467532
11.6,-0.509776
11.604,-0.525435
11.608,-0.376991
11.612,-0.42746
11.616,-0.393238
11.62,-0.342584
11.624,-0.259049
11.628,-0.286426
11.632,-0.31837
11.636,-0.201973
11.64,-0.223959
11.644,-0.075676
11.648,-0.140335
11.652,-0.222111
11.656,-0.06247
11.66,0.046986
11.664,0.058691
11.668,0.101601
11.672,-0.010786
11.676,0.115921
11.68,0.064262
11.684,0.141533
11.688,0.096509
11.692,0.157627
11.696,0.185557
11.7,0.293618
11.704,0.31782
11.708,0.320467
11.712,0.267667
11.716,0.347864
11.72,0.354068
11.724,0.462429
11.728,0.505045
11.732,0.525739
11.736,0.461513
11.74,0.388198
11.744,0.462249
11.748,0.646601
11.752,0.579855
11.756,0.586234
11.76,0.729189
11.764,0.733011
11.768,0.693063
11.772,0.698629
11.776,0.727504
11.78,0.76561
11.784,0.85371
11.788,0.813583
11.792,0.846793
11.796,0.88625
11.8,0.785844
11.804,0.897845
11.808,0.860365
11.812,0.763484
11.816,0.796267
11.82,0.864335
11.824,0.953536
11.828,0.943555
11.832,0.95712
11.836,1.054624
11.84,0.901927
11.844,0.971437
11.848,0.994572
11.852,0.948187
11.856,0.991173
11.86,0.913614
11.864,1.067058
11.868,0.964527
11.872,1.101314
11.876,0.998348
11.88,1.050692
11.884,0.995033
11.888,0.993663
11.892,0.962595
11.896,0.993447
11.9,0.998187
11.904,0.936977
11.908,0.962953
11.912,0.930834
11.916,1.067581
11.92,0.938504
11.924,1.009787
11.928,0.911431
11.932,0.922026
11.936,0.830016
11.94,0.859938
11.944,0.878223
11.948,0.931612
11.952,0.847251
11.956,0.888418
11.96,0.833603
11.964,0.864543
11.968,0.761114
11.972,0.863776
11.976,0.699517
11.98,0.664327
11.984,0.620372
11.988,0.775031
11.992,0.676458
11.996,0.595208
12.0,0.650236
12.004,0.597507
12.008,0.636254
12.012,0.434891
12.016,0.472884
12.02,0.436454
12.024,0.333905
12.028,0.458222
12.032,0.363933
12.036,0.386339
12.04,0.438932
12.044,0.274576
12.048,0.242209
12.052,0.239989
12.056,0.253995
12.06,0.146687
12.064,0.113706
12.068,0.168213
12.072,0.104279
12.076,-0.046973
12.08,-0.036139
12.084,0.070035
12.088,-0.015082
12.092,-0.103408
12.096,-0.10388
12.1,-0.124671
12.104,-0.118407
12.108,-0.252825
12.112,-0.25651
12.116,-0.23017
12.12,-0.277944
12.124,-0.273245
12.128,-0.391924
12.132,-0.340903
12.136,-0.332164
12.14,-0.390035
12.144,-0.434676
12.148,-0.473279
12.152,-0.536655
12.156,-0.52449
12.16,-0.483409
12.164,-0.577353
12.168,-0.640379
12.172,-0.644446
12.176,-0.633173
12.18,-0.684688
12.184,-0.663937
12.188,-0.683625
12.192,-0.686238
12.196,-0.679764
12.2,-0.72072
12.204,-0.836096
12.208,-0.852714
12.212,-0.828744
12.216,-0.864183
12.22,-0.914443
12.224,-0.894734
12.228,-0.910704
12.232,-0.934093
12.236,-0.928994
12.24,-0.866155
12.244,-0.926147
12.248,-0.822698
12.252,-0.947083
12.256,-0.978562
12.26,-0.971425
12.264,-0.965497
12.268,-0.962359
12.272,-0.885191
12.276,-1.035298
12.28,-0.953181
12.284,-0.987942
12.288,-1.078173
12.292,-0.961462
12.296,-0.936085
12.3,-1.040886
12.304,-0.996126
12.308,-1.078694
12.312,-1.051211
12.316,-0.930815
12.32,-1.000589
12.324,-1.025871
12.328,-0.951238
12.332,-0.980236
12.336,-0.968193
12.34,-0.897363
12.344,-0.981243
12.348,-0.956413
12.352,-0.8906
12.356,-0.836176
12.36,-0.808276
12.364,-0.888183
12.368,-0.79203
12.372,-0.861311
12.376,-0.713252
12.38,-0.842977
12.384,-0.700876
12.388,-0.780437
12.392,-0.626584
12.396,-0.676652
12.4,-0.735348
12.404,-0.688366
12.408,-0.600299
12.412,-0.563249
12.416,-0.59538
12.42,-0.565036
12.424,-0.50426
12.428,-0.510003
12.432,-0.555214
12.436,-0.504687
12.44,-0.42536
12.444,-0.349022
12.448,-0.301304
12.452,-0.315086
12.456,-0.311336
12.46,-0.259601
12.464,-0.30145
12.468,-0.246602
12.472,-0.250757
12.476,-0.242407
12.48,-0.133548
12.484,-0.111069
12.488,-0.055972
12.492,-0.032976
12.496,-0.018023
12.5,0.027831
12.504,0.028021
12.508,0.080927
12.512,0.054047
12.516,0.13883
12.52,0.183646
12.524,0.146486
12.528,0.212142
12.532,0.20776
12.536,0.241787
12.54,0.240795
12.544,0.388989
12.548,0.407347
12.552,0.408975
12.556,0.508405
12.56,0.427653
12.564,0.615626
12.568,0.479162
12.572,0.529353
12.576,0.522289
12.58,0.585885
12.584,0.633625
12.588,0.610186
12.592,0.728194
12.596,0.674211
12.6,0.698071
12.604,0.660768
12.608,0.748171
12.612,0.740911
12.616,0.736887
12.62,0.747465
12.624,0.93815
12.628,0.80893
12.632,0.766049
12.636,0.820019
12.64,0.867605
12.644,0.911979
12.648,0.926044
12.652,0.944975
12.656,0.890914
12.66,0.951351
12.664,0.900849
12.668,0.923133
12.672,0.916825
12.676,0.911011
12.68,1.030479
12.684,1.017647
12.688,1.037104
12.692,0.994392
12.696,1.03452
12.7,0.909962
12.704,1.042621
12.708,1.008853
12.712,1.030973
12.716,1.017331
12.72,0.946781
12.724,0.918129
12.728,0.953423
12.732,1.012367
12.736,1.012826
12.74,0.903235
12.744,0.915003
12.748,0.919446
12.752,0.928423
12.756,0.868006
12.76,0.853975
12.764,0.872113
12.768,0.904814
12.772,0.827949
12.776,0.866859
12.78,0.910454
12.784,0.776535
12.788,0.814633
12.792,0.858775
12.796,0.768471
12.8,0.74183
12.804,0.809116
12.808,0.715377
12.812,0.764992
12.816,0.709651
12.82,0.64887
12.824,0.6672
12.828,0.635856
12.832,0.646933
12.836,0.543984
12.84,0.548455
12.844,0.517815
12.848,0.53012
12.852,0.417226
12.856,0.49248
12.86,0.437692
12.864,0.320897
12.868,0.419172
12.872,0.442153
12.876,0.351929
12.88,0.344301
12.884,0.248087
12.888,0.131387
12.892,0.092706
12.896,0.167947
12.9,0.095734
12.904,0.04963
12.908,0.062161
12.912,0.065958
12.916,-0.067611
12.92,-0.047574
12.924,0.02023
12.928,-0.139112
12.932,-0.071865
12.936,-0.169491
12.94,-0.147733
12.944,-0.149766
12.948,-0.196992
12.952,-0.217809
12.956,-0.349818
12.96,-0.265261
12.964,-0.391992
12.968,-0.364476
12.972,-0.392293
12.976,-0.408333
12.98,-0.442732
12.984,-0.528343
12.988,-0.579776
12.992,-0.49433
12.996,-0.553831
13.0,-0.530316
13.004,-0.61415
13.008,-0.705744
13.012,-0.610173
13.016,-0.699393
13.02,-0.68555
13.024,-0.75616
13.028,-0.66205
13.032,-0.807895
13.036,-0.800044
13.04,-0.796195
13.044,-0.873841
13.048,-0.819626
13.052,-0.771716
13.056,-0.892219
13.06,-0.862534
13.064,-1.033556
13.068,-0.911008
13.072,-0.936865
13.076,-0.973451
13.08,-0.888918
13.084,-0.96891
13.088,-0.970213
13.092,-0.988065
13.096,-1.072031
13.1,-1.038887
13.104,-0.939436
13.108,-1.097294
13.112,-1.033516
13.116,-1.017685
13.12,-0.912108
13.124,-0.961541
13.128,-1.027603
13.132,-0.933382
13.136,-1.033588
13.14,-0.943156
13.144,-1.0577
13.148,-0.931338
13.152,-0.999657
13.156,-1.024233
13.16,-0.976239
13.164,-0.94321
13.168,-0.972639
13.172,-0.910167
13.176,-0.956124
13.18,-0.884223
13.184,-0.880564
13.188,-0.892335
13.192,-0.897162
13.196,-0.852525
13.2,-0.816815
13.204,-0.724696
13.208,-0.763521
13.212,-0.74366
13.216,-0.619282
13.22,-0.728453
13.224,-0.709877
13.228,-0.678099
13.232,-0.742289
13.236,-0.691948
13.24,-0.672364
13.244,-0.59139
13.248,-0.608626
13.252,-0.568608
13.256,-0.496225
13.26,-0.482017
13.264,-0.50736
13.268,-0.50642
13.272,-0.389372
13.276,-0.38025
13.28,-0.471687
13.284,-0.379104
13.288,-0.326913
13.292,-0.267684
13.296,-0.232279
13.3,-0.234495
13.304,-0.190107
13.308,-0.186643
13.312,-0.193849
13.316,-0.143382
13.32,-0.099412
13.324,-0.072048
13.328,-0.13448
13.332,-0.029927
13.336,0.022915
13.34,0.036176
13.344,0.067997
13.348,0.134758
13.352,0.086331
13.356,0.08867
13.36,0.182301
13.364,0.267372
13.368,0.342792
13.372,0.326534
13.376,0.242766
13.38,0.333025
13.384,0.385625
13.388,0.409484
13.392,0.455017
13.396,0.409257
13.4,0.485001
13.404,0.528976
13.408,0.574987
13.412,0.518675
13.416,0.566453
13.42,0.472739
13.424,0.600523
13.428,0.628467
13.432,0.626205
13.436,0.707345
13.44,0.717512
13.444,0.627938
13.448,0.771589
13.452,0.733621
13.456,0.822836
13.46,0.752247
13.464,0.834885
13.468,0.835514
13.472,0.880342
13.476,0.886149
13.48,0.881083
13.484,0.830142
13.488,0.845385
13.492,0.901504
13.496,0.940892
13.5,0.920644
13.504,0.991203
13.508,0.953994
13.512,0.926837
13.516,0.967428
13.52,0.997979
13.524,1.007386
13.528,1.088615
13.532,0.9639
13.536,0.995413
13.54,1.021227
13.544,0.998674
13.548,0.973829
13.552,0.919504
13.556,0.968624
13.56,0.936776
13.564,0.899526
13.568,0.94057
13.572,0.921606
13.576,0.99587
13.58,0.988576
13.584,0.904297
13.588,0.926586
13.592,0.835936
13.596,0.892538
13.6,0.924776
13.604,0.932823
13.608,0.841862
13.612,0.915248
13.616,0.771226
13.62,0.768215
13.624,0.848909
13.628,0.879072
13.632,0.801554
13.636,0.755525
13.64,0.627754
13.644,0.615691
13.648,0.701932
13.652,0.655574
13.656,0.595588
13.66,0.630968
13.664,0.609688
13.668,0.626843
13.672,0.561616
13.676,0.590865
13.68,0.504023
13.684,0.471576
13.688,0.503844
13.692,0.374582
13.696,0.536717
13.7,0.386887
13.704,0.358961
13.708,0.337661
13.712,0.376466
13.716,0.293181
13.72,0.144018
13.724,0.264956
13.728,0.148072
13.732,0.140658
13.736,0.041399
13.74,0.101637
13.744,0.012655
13.748,0.020088
13.752,-0.029284
13.756,0.051027
13.76,0.023786
13.764,-0.103036
13.768,-0.132102
13.772,-0.183789
13.776,-0.139482
13.78,-0.240717
13.784,-0.274622
13.788,-0.23368
13.792,-0.338321
13.796,-0.341808
13.8,-0.44719
13.804,-0.360785
13.808,-0.326461
13.812,-0.414567
13.816,-0.404253
13.82,-0.545928
13.824,-0.517629
13.828,-0.601944
13.832,-0.591011
13.836,-0.565321
13.84,-0.6226
13.844,-0.721512
13.848,-0.739229
13.852,-0.76452
13.856,-0.692241
13.86,-0.634318
13.864,-0.689419
13.868,-0.871682
13.872,-0.724462
13.876,-0.766606
13.88,-0.907861
13.884,-0.862171
13.888,-0.807879
13.892,-0.849993
13.896,-0.957031
13.9,-0.87429
13.904,-1.02413
13.908,-0.939989
13.912,-0.882699
13.916,-0.948572
13.92,-0.983469
13.924,-0.922213
13.928,-0.925223
13.932,-0.914852
13.936,-0.942139
13.94,-0.936393
13.944,-0.957521
13.948,-0.98369
13.952,-0.994385
13.956,-1.011708
13.96,-1.060539
13.964,-1.046853
13.968,-1.011446
13.972,-0.982623
13.976,-0.919101
13.98,-0.988776
13.984,-0.931159
13.988,-0.921122
13.992,-0.979527
13.996,-0.930208
14.0,-0.963233
14.004,-0.875199
14.008,-0.898907
14.012,-0.97877
14.016,-0.89888
14.02,-0.811436
14.024,-0.888976
14.028,-0.842801
14.032,-0.822378
14.036,-0.885216
14.04,-0.790804
14.044,-0.868243
14.048,-0.811319
14.052,-0.707028
14.056,-0.723061
14.06,-0.735533
14.064,-0.676741
14.068,-0.680189
14.072,-0.654059
14.076,-0.598755
14.08,-0.644299
14.084,-0.581694
14.088,-0.574575
14.092,-0.612983
14.096,-0.553982
14.1,-0.403343
14.104,-0.435874
14.108,-0.494231
14.112,-0.477623
14.116,-0.378402
14.12,-0.266584
14.124,-0.325517
14.128,-0.222077
14.132,-0.240818
14.136,-0.205604
14.14,-0.266496
14.144,-0.123196
14.148,-0.157026
14.152,-0.067204
14.156,-0.121047
14.16,-0.041392
14.164,-0.002505
14.168,0.002351
14.172,0.060429
14.176,0.056994
14.18,0.067909
14.184,0.210593
14.188,0.212604
14.192,0.151806
14.196,0.247792
14.2,0.211556
14.204,0.21855
14.208,0.358316
14.212,0.249984
14.216,0.409789
14.22,0.378738
14.224,0.408368
14.228,0.466623
14.232,0.50198
14.236,0.457957
14.24,0.561061
14.244,0.556266
14.248,0.512716
14.252,0.591424
14.256,0.692834
14.26,0.730886
14.264,0.70562
14.268,0.632324
14.272,0.73783
14.276,0.776652
14.28,0.790537
14.284,0.812955
14.288,0.810623
14.292,0.806871
14.296,0.797368
14.3,0.749431
14.304,0.877084
14.308,0.884396
14.312,0.917167
14.316,0.835798
14.32,0.947492
14.324,1.029702
14.328,0.941787
14.332,0.944819
14.336,0.972527
14.34,1.066998
14.344,0.921626
14.348,0.98951
14.352,0.945018
14.356,0.962406
14.36,0.991132
14.364,1.063929
14.368,1.088657
14.372,1.022151
14.376,0.981142
14.38,1.123926
14.384,0.976321
14.388,0.966643
14.392,0.903049
14.396,1.057296
14.4,1.0307
14.404,1.09708
14.408,0.899729
14.412,1.034247
14.416,0.956105
14.42,0.983296
14.424,0.850137
14.428,0.994617
14.432,0.948387
14.436,0.894138
14.44,0.914547
14.444,0.829421
14.448,0.82334
14.452,0.81298
14.456,0.726596
14.46,0.844655
14.464,0.842752
14.468,0.728999
14.472,0.761675
14.476,0.71051
14.48,0.719064
14.484,0.649495
14.488,0.614308
14.492,0.688089
14.496,0.60872
14.5,0.688891
14.504,0.565438
14.508,0.491643
14.512,0.57363
14.516,0.517692
14.52,0.495924
14.524,0.492119
14.528,0.372566
14.532,0.37109
14.536,0.340785
14.54,0.256406
14.544,0.279059
14.548,0.330086
14.552,0.245923
14.556,0.13733
14.56,0.097231
14.564,0.228493
14.568,0.110837
14.572,0.052977
14.576,0.041564
14.58,-0.048735
14.584,0.066128
14.588,-0.054831
14.592,0.003071
14.596,-0.092777
14.6,-0.053857
14.604,-0.142358
14.608,-0.14225
14.612,-0.178508
14.616,-0.212654
14.62,-0.255555
14.624,-0.31348
14.628,-0.234677
14.632,-0.404106
14.636,-0.386528
14.64,-0.413631
14.644,-0.421509
14.648,-0.489959
14.652,-0.479175
14.656,-0.529333
14.66,-0.625492
14.664,-0.570924
14.668,-0.650917
14.672,-0.706553
14.676,-0.636372
14.68,-0.641618
14.684,-0.661868
14.688,-0.681409
14.692,-0.827316
14.696,-0.818992
14.7,-0.671837
14.704,-0.841745
14.708,-0.776995
14.712,-0.859303
14.716,-0.83764
14.72,-0.889189
14.724,-0.844572
14.728,-0.88014
14.732,-0.922915
14.736,-0.965713
14.74,-0.911688
14.744,-0.996745
14.748,-0.924915
14.752,-0.824284
14.756,-0.89655
14.76,-0.935714
14.764,-0.982602
14.768,-1.081059
14.772,-1.05514
14.776,-0.928892
14.78,-1.035621
14.784,-1.033292
14.788,-1.0079
14.792,-1.053099
14.796,-1.060805
14.8,-1.00055
14.804,-1.040256
14.808,-1.029477
14.812,-1.027331
14.816,-0.957099
14.82,-0.988874
14.824,-0.979359
14.828,-0.932863
14.832,-0.961217
14.836,-0.958564
14.84,-0.910806
14.844,-0.889747
14.848,-0.918498
14.852,-0.894273
14.856,-0.923736
14.86,-0.913218
14.864,-0.816473
14.868,-0.816652
14.872,-0.799339
14.876,-0.79052
14.88,-0.783978
14.884,-0.732479
14.888,-0.700857
14.892,-0.681684
14.896,-0.711257
14.9,-0.615197
14.904,-0.650831
14.908,-0.60774
14.912,-0.601777
14.916,-0.579494
14.92,-0.604057
14.924,-0.50711
14.928,-0.374328
14.932,-0.509279
14.936,-0.460489
14.94,-0.459426
14.944,-0.434197
14.948,-0.30488
14.952,-0.387711
14.956,-0.349404
14.96,-0.376416
14.964,-0.305993
14.968,-0.32436
14.972,-0.17796
14.976,-0.039985
14.98,-0.16856
14.984,-0.203683
14.988,-0.045354
14.992,-0.096628
14.996,0.034813
15.0,-0.014101
15.004,-0.001436
15.008,0.051384
15.012,0.128243
15.016,0.108974
15.02,0.125389
15.024,0.170028
15.028,0.145958
15.032,0.258792
15.036,0.178776
15.04,0.274836
15.044,0.363669
15.048,0.369215
15.052,0.411619
15.056,0.406543
15.06,0.495603
15.064,0.510273
15.068,0.512846
15.072,0.56297
15.076,0.579699
15.08,0.545296
15.084,0.524649
15.088,0.6369
15.092,0.666663
15.096,0.716778
15.1,0.637731
15.104,0.660896
15.108,0.750241
15.112,0.744054
15.116,0.673011
15.12,0.805044
15.124,0.711941
15.128,0.774841
15.132,0.906483
15.136,0.946174
15.14,0.809401
15.144,0.868177
15.148,0.900435
15.152,1.000206
15.156,0.898513
15.16,0.910485
15.164,1.022088
15.168,0.935376
15.172,0.998821
15.176,0.896574
15.18,0.968706
15.184,0.900237
15.188,0.935499
15.192,1.034387
15.196,0.993184
15.2,0.982071
15.204,0.962029
15.208,0.988964
15.212,1.014674
15.216,1.047476
15.22,0.864876
15.224,0.951443
15.228,0.996981
15.232,0.979178
15.236,0.99849
15.24,0.985009
15.244,0.948815
15.248,0.929265
15.252,0.934014
15.256,0.993546
15.26,0.888477
15.264,0.910064
15.268,0.909668
15.272,0.964996
15.276,0.857634
15.28,0.905467
15.284,0.903223
15.288,0.821768
15.292,0.797001
15.296,0.772932
15.3,0.757722
15.304,0.793653
15.308,0.742237
15.312,0.721532
15.316,0.631941
15.32,0.617637
15.324,0.750388
15.328,0.610943
15.332,0.55715
15.336,0.642956
15.34,0.560485
15.344,0.549798
15.348,0.48801
15.352,0.452551
15.356,0.433152
15.36,0.345239
15.364,0.382347
15.368,0.373561
15.372,0.422972
15.376,0.306137
15.38,0.156243
15.384,0.239119
15.388,0.351438
15.392,0.22823
15.396,0.114649
15.4,0.154889
15.404,0.058259
15.408,-0.002392
15.412,0.01776
15.416,0.009603
15.42,-0.118738
15.424,-0.112722
15.428,-0.084831
15.432,-0.135762
15.436,-0.125514
15.44,-0.235756
15.444,-0.168927
15.448,-0.293244
15.452,-0.18113
15.456,-0.378026
15.46,-0.375571
15.464,-0.328489
15.468,-0.294241
15.472,-0.389453
15.476,-0.404446
15.48,-0.458703
15.484,-0.537472
15.488,-0.53679
15.492,-0.598543
15.496,-0.627058
15.5,-0.567698
15.504,-0.668073
15.508,-0.619508
15.512,-0.72357
15.516,-0.666055
15.52,-0.727084
15.524,-0.653456
15.528,-0.728079
15.532,-0.702277
15.536,-0.820955
15.54,-0.79876
15.544,-0.868286
15.548,-0.856832
15.552,-0.865417
15.556,-0.903989
15.56,-0.943066
15.564,-0.96676
15.568,-1.026049
15.572,-0.97403
15.576,-0.901151
15.58,-1.022915
15.584,-1.021004
15.588,-0.871794
15.592,-1.00103
15.596,-0.960138
15.6,-0.950171
15.604,-0.954365
15.608,-1.067912
15.612,-1.006753
15.616,-1.07861
15.62,-0.876974
15.624,-1.079715
15.628,-1.052136
15.632,-1.050638
15.636,-1.071396
15.64,-0.925982
15.644,-0.868634
15.648,-1.008789
15.652,-1.045371
15.656,-1.084655
15.66,-0.977587
15.664,-0.972895
15.668,-0.980467
15.672,-0.926796
15.676,-0.907216
15.68,-0.899087
15.684,-0.918482
15.688,-0.94437
15.692,-0.841801
15.696,-0.859476
15.7,-0.79991
15.704,-0.788282
15.708,-0.88158
15.712,-0.864171
15.716,-0.811485
15.72,-0.807065
15.724,-0.696347
15.728,-0.695734
15.732,-0.636882
15.736,-0.649929
15.74,-0.636623
15.744,-0.563784
15.748,-0.576431
15.752,-0.572114
15.756,-0.476575
15.76,-0.519416
15.764,-0.514491
15.768,-0.514811
15.772,-0.410984
15.776,-0.357092
15.78,-0.393903
15.784,-0.298051
15.788,-0.433689
15.792,-0.309398
15.796,-0.279789
15.8,-0.28504
15.804,-0.100176
15.808,-0.193159
15.812,-0.180543
15.816,-0.12902
15.82,-0.200502
15.824,-0.108307
15.828,0.00896
15.832,-0.0415
15.836,-0.021339
15.84,0.115721
15.844,0.147351
15.848,0.136208
15.852,0.117523
15.856,0.158098
15.86,0.159502
15.864,0.179428
15.868,0.206194
15.872,0.256525
15.876,0.264443
15.88,0.266458
15.884,0.383764
15.888,0.412335
15.892,0.513092
15.896,0.421693
15.9,0.496559
15.904,0.523595
15.908,0.521011
15.912,0.596178
15.916,0.622473
15.92,0.624301
15.924,0.618814
15.928,0.636812
15.932,0.608797
15.936,0.658769
15.94,0.689209
15.944,0.6847
15.948,0.78281
15.952,0.839869
15.956,0.753148
15.96,0.830511
15.964,0.781679
15.968,0.834426
15.972,0.83067
15.976,0.910009
15.98,0.859902
15.984,0.957539
15.988,0.906959
15.992,0.898219
15.996,0.87864
16.0,0.963717
16.004,1.004703
16.008,0.981621
16.012,1.087029
16.016,1.052822
16.02,0.97131
16.024,0.97524
16.028,1.01818
16.032,0.955444
16.036,1.057402
16.04,1.018001
16.044,1.012668
16.048,1.033208
16.052,1.083108
16.056,1.002714
16.06,0.984809
16.064,1.061292
16.068,1.028731
16.072,0.957911
16.076,0.96694
16.08,0.968291
16.084,0.967582
16.088,0.871767
16.092,0.851724
16.096,0.872885
16.1,0.85659
16.104,0.859385
16.108,0.90925
16.112,0.854208
16.116,0.85683
16.12,0.769381
16.124,0.790344
16.128,0.824879
16.132,0.80663
16.136,0.721314
16.14,0.745596
16.144,0.826756
16.148,0.694582
16.152,0.638818
16.156,0.642192
16.16,0.6323
16.164,0.596373
16.168,0.578055
16.172,0.482614
16.176,0.481314
16.18,0.496156
16.184,0.469079
16.188,0.422319
16.192,0.414653
16.196,0.399045
16.2,0.412595
16.204,0.334959
16.208,0.331361
16.212,0.255529
16.216,0.28216
16.22,0.243057
16.224,0.238073
16.228,0.200789
16.232,0.164737
16.236,0.100441
16.24,0.087574
16.244,0.098399
16.248,-0.017525
16.252,-0.046499
16.256,-0.036152
16.26,-0.054563
16.264,-0.146567
16.268,-0.139039
16.272,-0.169816
16.276,-0.305546
16.28,-0.23525
16.284,-0.261421
16.288,-0.290624
16.292,-0.240611
16.296,-0.40071
16.3,-0.409356
16.304,-0.526604
16.308,-0.44755
16.312,-0.47041
16.316,-0.502842
16.32,-0.448239
16.324,-0.486415
16.328,-0.550894
16.332,-0.598153
16.336,-0.552622
16.34,-0.628679
16.344,-0.691794
16.348,-0.75929
16.352,-0.717527
16.356,-0.679081
16.36,-0.623686
16.364,-0.754462
16.368,-0.81515
16.372,-0.854764
16.376,-0.785828
16.38,-0.918827
16.384,-0.819493
16.388,-0.821769
16.392,-0.855701
16.396,-0.902559
16.4,-0.87658
16.404,-0.908708
16.408,-0.967755
16.412,-0.847076
16.416,-0.967075
16.42,-0.919734
16.424,-1.087611
16.428,-0.910137
16.432,-0.906916
16.436,-0.984364
16.44,-0.962523
16.444,-0.96624
16.448,-1.029106
16.452,-0.971504
16.456,-1.040277
16.46,-1.030359
16.464,-0.94274
16.468,-0.948612
16.472,-1.030014
16.476,-1.02782
16.48,-1.018966
16.484,-0.944701
16.488,-1.025087
16.492,-0.950119
16.496,-0.9226
16.5,-0.955469
16.504,-0.890803
16.508,-0.945914
16.512,-0.929938
16.516,-0.955818
16.52,-0.842983
16.524,-0.91824
16.528,-0.847698
16.532,-0.853238
16.536,-0.886024
16.54,-0.846794
16.544,-0.729408
16.548,-0.769955
16.552,-0.811271
16.556,-0.725632
16.56,-0.727615
16.564,-0.526362
16.568,-0.662928
16.572,-0.673719
16.576,-0.560595
16.58,-0.699982
16.584,-0.578995
16.588,-0.45924
16.592,-0.539513
16.596,-0.594624
16.6,-0.50155
16.604,-0.382384
16.608,-0.409249
16.612,-0.442548
16.616,-0.407056
16.62,-0.372628
16.624,-0.298119
16.628,-0.220518
16.632,-0.205793
16.636,-0.206366
16.64,-0.266292
16.644,-0.236469
16.648,-0.113617
16.652,-0.177632
16.656,-0.091616
16.66,-0.035037
16.664,-0.076985
16.668,-0.04116
16.672,0.035495
16.676,0.095496
16.68,0.153438
16.684,0.160671
16.688,0.16384
16.692,0.15254
16.696,0.165824
16.7,0.223146
16.704,0.298281
16.708,0.323457
16.712,0.230193
16.716,0.324163
16.72,0.451599
16.724,0.422906
16.728,0.375285
16.732,0.590711
16.736,0.497827
16.74,0.544391
16.744,0.570574
16.748,0.557139
16.752,0.563539
16.756,0.729854
16.76,0.697216
16.764,0.71085
16.768,0.720655
16.772,0.663134
16.776,0.797986
16.78,0.712095
16.784,0.787872
16.788,0.710491
16.792,0.708449
16.796,0.843701
16.8,0.803873
16.804,0.760643
16.808,0.902124
16.812,0.995293
16.816,0.972153
16.82,0.902375
16.824,0.927417
16.828,0.98225
16.832,1.004008
16.836,0.9399
16.84,0.967091
16.844,0.987839
16.848,1.007044
16.852,0.978347
16.856,0.983752
16.86,1.062603
16.864,1.057039
16.868,1.022478
16.872,1.0857
16.876,0.980649
16.88,1.080438
16.884,1.024824
16.888,1.158751
16.892,0.932172
16.896,0.953024
16.9,1.003227
16.904,0.996052
16.908,1.066712
16.912,0.92792
16.916,0.997844
16.92,1.001114
16.924,0.967758
16.928,0.873163
16.932,0.97945
16.936,0.95755
16.94,0.91227
16.944,0.877913
16.948,0.863617
16.952,0.832215
16.956,0.851271
16.96,0.803124
16.964,0.740747
16.968,0.711637
16.972,0.706663
16.976,0.734893
16.98,0.701302
16.984,0.691641
16.988,0.68352
16.992,0.604119
16.996,0.685197
17.0,0.5744
17.004,0.541451
17.008,0.562066
17.012,0.420457
17.016,0.446626
17.02,0.508634
17.024,0.345718
17.028,0.461084
17.032,0.45301
17.036,0.330884
17.04,0.335534
17.044,0.348193
17.048,0.239927
17.052,0.277445
17.056,0.171075
17.06,0.151143
17.064,0.105287
17.068,0.132486
17.072,0.143246
17.076,0.046058
17.08,-0.038432
17.084,-0.059162
17.088,-0.015449
17.092,0.026907
17.096,-0.075673
17.1,-0.144678
17.104,-0.116884
17.108,-0.196887
17.112,-0.233377
17.116,-0.291741
17.12,-0.202529
17.124,-0.428798
17.128,-0.290556
17.132,-0.381946
17.136,-0.40726
17.14,-0.32976
17.144,-0.477338
17.148,-0.502488
17.152,-0.501433
17.156,-0.500198
17.16,-0.568487
17.164,-0.650094
17.168,-0.639173
17.172,-0.555767
17.176,-0.639477
17.18,-0.643458
17.184,-0.701274
17.188,-0.742742
17.192,-0.646808
17.196,-0.760351
17.2,-0.792682
17.204,-0.734577
17.208,-0.843655
17.212,-0.854692
17.216,-0.841112
17.22,-0.857513
17.224,-0.859669
17.228,-0.782395
17.232,-0.883689
17.236,-1.032107
17.24,-0.908762
17.244,-0.934215
17.248,-0.944116
17.252,-0.943311
17.256,-0.965492
17.26,-0.974262
17.264,-0.947669
17.268,-1.011225
17.272,-1.03641
17.276,-0.841842
17.28,-1.031926
17.284,-0.993323
17.288,-1.074401
17.292,-0.994173
17.296,-1.046128
17.3,-1.02015
17.304,-0.943426
17.308,-0.968826
17.312,-0.959851
17.316,-1.071777
17.32,-0.885423
17.324,-1.030025
17.328,-0.886283
17.332,-0.903038
17.336,-0.915785
17.34,-0.977078
17.344,-0.915577
17.348,-0.934691
17.352,-0.896852
17.356,-0.89714
17.36,-0.972114
17.364,-0.798841
17.368,-0.842954
17.372,-0.846344
17.376,-0.832579
17.38,-0.768365
17.384,-0.811987
17.388,-0.860371
17.392,-0.706889
17.396,-0.680262
17.4,-0.694529
17.404,-0.719649
17.408,-0.634912
17.412,-0.689108
17.416,-0.643206
17.42,-0.604804
17.424,-0.499981
17.428,-0.534724
17.432,-0.512932
17.436,-0.366304
17.44,-0.419493
17.444,-0.392846
17.448,-0.400588
17.452,-0.383881
17.456,-0.43502
17.46,-0.248605
17.464,-0.245697
17.468,-0.247899
17.472,-0.216412
17.476,-0.143163
17.48,-0.227961
17.484,-0.149839
17.488,-0.14717
17.492,0.028293
17.496,0.013628
17.5,-0.110135
17.504,-0.045533
17.508,0.053665
17.512,0.066732
17.516,0.054126
17.52,0.247464
17.524,0.195597
17.528,0.233291
17.532,0.204339
17.536,0.304227
17.54,0.27802
17.544,0.311533
17.548,0.384613
17.552,0.300653
17.556,0.489647
17.56,0.446235
17.564,0.528086
17.568,0.436768
17.572,0.470435
17.576,0.484083
17.58,0.579784
17.584,0.595144
17.588,0.592661
17.592,0.588655
17.596,0.598924
17.6,0.682123
17.604,0.682938
17.608,0.692966
17.612,0.824967
17.616,0.763183
17.62,0.849791
17.624,0.7779
17.628,0.834343
17.632,0.836125
17.636,0.770049
17.64,0.941601
17.644,0.877888
17.648,0.935625
17.652,0.873543
17.656,0.914914
17.66,0.890986
17.664,1.006451
17.668,0.969685
17.672,0.981063
17.676,1.03834
17.68,1.035085
17.684,1.021484
17.688,0.917185
17.692,0.957643
17.696,0.945485
17.7,1.034403
17.704,1.007999
17.708,0.930471
17.712,0.990181
17.716,0.923624
17.72,0.993476
17.724,0.910263
17.728,1.015468
17.732,1.003019
17.736,1.073719
17.74,1.014025
17.744,0.942913
17.748,0.996512
17.752,0.876406
17.756,0.887985
17.76,0.941734
17.764,0.805292
17.768,0.898643
17.772,0.835965
17.776,0.877715
17.78,0.80364
17.784,0.862836
17.788,0.825922
17.792,0.877555
17.796,0.789721
17.8,0.732081
17.804,0.738597
17.808,0.663475
17.812,0.730074
17.816,0.717695
17.82,0.789472
17.824,0.612124
17.828,0.606444
17.832,0.567101
17.836,0.582007
17.84,0.565479
17.844,0.518222
17.848,0.549229
17.852,0.437636
17.856,0.49094
17.86,0.4413
17.864,0.386142
17.868,0.343012
17.872,0.451782
17.876,0.260987
17.88,0.287849
17.884,0.206307
17.888,0.303744
17.892,0.229253
17.896,0.121276
17.9,0.150963
17.904,0.108244
17.908,0.039467
17.912,0.073087
17.916,0.024492
17.92,-0.014345
17.924,-0.05736
17.928,-0.063795
17.932,-0.103884
17.936,-0.1423
17.94,-0.207074
17.944,-0.119944
17.948,-0.286577
17.952,-0.241885
17.956,-0.30825
17.96,-0.232966
17.964,-0.394531
17.968,-0.414216
17.972,-0.453696
17.976,-0.416416
17.98,-0.528232
17.984,-0.510079
17.988,-0.619901
17.992,-0.525926
17.996,-0.588133
18.0,-0.662188
18.004,-0.557633
18.008,-0.700869
18.012,-0.618632
18.016,-0.715926
18.02,-0.622571
18.024,-0.686309
18.028,-0.794667
18.032,-0.80992
18.036,-0.752897
18.04,-0.814686
18.044,-0.827699
18.048,-0.77254
18.052,-0.889746
18.056,-0.863131
18.06,-0.83456
18.064,-0.855628
18.068,-0.917042
18.072,-0.935658
18.076,-1.019466
18.08,-0.995803
18.084,-0.93668
18.088,-0.968233
18.092,-0.965459
18.096,-0.924227
18.1,-1.041653
18.104,-0.9993
18.108,-0.982361
18.112,-1.030408
18.116,-0.926125
18.12,-0.95386
18.124,-0.985465
18.128,-0.910033
18.132,-1.073552
18.136,-0.996949
18.14,-0.975294
18.144,-1.035484
18.148,-0.969965
18.152,-1.034679
18.156,-0.93828
18.16,-0.91249
18.164,-0.94346
18.168,-1.040542
18.172,-0.986204
18.176,-0.898739
18.18,-0.914181
18.184,-1.037376
18.188,-0.827147
18.192,-0.86826
18.196,-0.901055
18.2,-0.79458
18.204,-0.861663
18.208,-0.844914
18.212,-0.774542
18.216,-0.684656
18.22,-0.673072
18.224,-0.716124
18.228,-0.69018
18.232,-0.652266
18.236,-0.732602
18.24,-0.614849
18.244,-0.660474
18.248,-0.583994
18.252,-0.586893
18.256,-0.525537
18.26,-0.519269
18.264,-0.652926
18.268,-0.463975
18.272,-0.414028
18.276,-0.396649
18.28,-0.396503
18.284,-0.281338
18.288,-0.31962
18.292,-0.284742
18.296,-0.22556
18.3,-0.23056
18.304,-0.26427
18.308,-0.311766
18.312,-0.184013
18.316,-0.092271
18.32,-0.118017
18.324,-0.030255
18.328,-0.032765
18.332,0.05435
18.336,0.005344
18.34,0.073625
18.344,0.105632
18.348,0.185439
18.352,0.054947
18.356,0.147151
18.36,0.242136
18.364,0.306461
18.368,0.270418
18.372,0.272792
18.376,0.354035
18.38,0.388078
18.384,0.35481
18.388,0.41712
18.392,0.487078
18.396,0.549633
18.4,0.518884
18.404,0.510166
18.408,0.530999
18.412,0.586831
18.416,0.577928
18.42,0.617412
18.424,0.578703
18.428,0.719541
18.432,0.620175
18.436,0.677459
18.44,0.725189
18.444,0.840448
18.448,0.73968
18.452,0.746737
18.456,0.771011
18.46,0.899284
18.464,0.692767
18.468,0.799535
18.472,1.001751
18.476,0.909458
18.48,0.838542
18.484,0.90486
18.488,0.922618
18.492,0.973005
18.496,1.033281
18.5,0.970484
18.504,0.932953
18.508,1.007309
18.512,0.940175
18.516,0.929666
18.52,0.898691
18.524,0.912885
18.528,0.949873
18.532,0.938456
18.536,1.014749
18.54,0.939951
18.544,0.842662
18.548,0.946664
18.552,0.973373
18.556,0.963894
18.56,1.066438
18.564,0.955179
18.568,1.0244
18.572,0.973011
18.576,0.964565
18.58,0.916753
18.584,0.946552
18.588,0.901342
18.592,0.93735
18.596,0.905442
18.6,0.857596
18.604,0.941171
18.608,0.898857
18.612,0.840252
18.616,0.854285
18.62,0.826405
18.624,0.770046
18.628,0.799041
18.632,0.745832
18.636,0.710296
18.64,0.656375
18.644,0.698883
18.648,0.72381
18.652,0.638744
18.656,0.776916
18.66,0.671976
18.664,0.669148
18.668,0.619385
18.672,0.64743
18.676,0.490095
18.68,0.375586
18.684,0.455037
18.688,0.478539
18.692,0.43108
18.696,0.409768
18.7,0.43417
18.704,0.359023
18.708,0.351352
18.712,0.235631
18.716,0.198786
18.72,0.304976
18.724,0.199827
18.728,0.133955
18.732,0.104231
18.736,0.072905
18.74,0.039879
18.744,-0.018934
18.748,-0.059942
18.752,-0.024829
18.756,-0.07487
18.76,-0.019969
18.764,-0.090708
18.768,-0.122035
18.772,-0.202272
18.776,-0.200834
18.78,-0.206221
18.784,-0.217746
18.788,-0.287304
18.792,-0.25745
18.796,-0.339521
18.8,-0.328482
18.804,-0.420487
18.808,-0.514133
18.812,-0.43721
18.816,-0.441077
18.82,-0.474856
18.824,-0.508336
18.828,-0.572216
18.832,-0.61996
18.836,-0.576345
18.84,-0.606369
18.844,-0.678925
18.848,-0.618006
18.852,-0.739605
18.856,-0.745989
18.86,-0.655692
18.864,-0.714113
18.868,-0.794783
18.872,-0.781147
18.876,-0.805686
18.88,-0.967877
18.884,-0.892334
18.888,-0.865197
18.892,-0.895345
18.896,-0.879221
18.9,-0.848353
18.904,-0.933332
18.908,-0.981731
18.912,-0.923354
18.916,-0.965822
18.92,-0.966325
18.924,-0.981269
18.928,-0.861868
18.932,-1.092389
18.936,-1.005273
18.94,-0.990646
18.944,-1.033223
18.948,-0.951975
18.952,-0.958197
18.956,-1.002233
18.96,-1.013455
18.964,-1.004685
18.968,-1.002584
18.972,-0.998614
18.976,-1.000541
18.98,-0.974063
18.984,-0.943672
18.988,-1.0366
18.992,-1.020488
18.996,-1.047368
19.0,-0.907737
19.004,-0.92879
19.008,-0.905435
19.012,-0.99072
19.016,-0.817708
19.02,-0.924284
19.024,-0.871504
19.028,-0.822467
19.032,-0.899021
19.036,-0.860701
19.04,-0.807381
19.044,-0.655678
19.048,-0.764981
19.052,-0.680496
19.056,-0.680615
19.06,-0.701909
19.064,-0.748524
19.068,-0.624197
19.072,-0.729594
19.076,-0.551553
19.08,-0.59793
19.084,-0.716222
19.088,-0.575987
19.092,-0.501006
19.096,-0.519811
19.1,-0.446003
19.104,-0.497611
19.108,-0.493351
19.112,-0.404177
19.116,-0.371215
19.12,-0.362062
19.124,-0.254814
19.128,-0.329938
19.132,-0.242756
19.136,-0.225768
19.14,-0.277546
19.144,-0.236023
19.148,-0.139684
19.152,-0.011299
19.156,-0.051375
19.16,-0.136526
19.164,-0.175629
19.168,0.046706
19.172,0.035391
19.176,0.127377
19.18,0.056326
19.184,0.147829
19.188,0.202466
19.192,0.167476
19.196,0.198065
19.2,0.249953
19.204,0.304918
19.208,0.305909
19.212,0.383888
19.216,0.34035
19.22,0.324954
19.224,0.517794
19.228,0.415904
19.232,0.444498
19.236,0.495984
19.24,0.528534
19.244,0.531263
19.248,0.574648
19.252,0.59793
19.256,0.632511
19.26,0.529182
19.264,0.763797
19.268,0.684476
19.272,0.742331
19.276,0.665204
19.28,0.730701
19.284,0.740092
19.288,0.865946
19.292,0.781201
19.296,0.86569
19.3,0.811807
19.304,0.837471
19.308,0.862816
19.312,0.953481
19.316,0.808183
19.32,0.849458
19.324,0.829609
19.328,0.88349
19.332,0.907322
19.336,0.876353
19.34,0.928674
19.344,0.872073
19.348,0.928451
19.352,1.045022
19.356,1.009936
19.36,1.002985
19.364,0.946424
19.368,0.921803
19.372,0.942786
19.376,0.997811
19.38,1.042698
19.384,1.042817
19.388,1.026731
19.392,0.954919
19.396,0.988718
19.4,0.96622
19.404,0.966131
19.408,1.071062
19.412,0.873239
19.416,0.940864
19.42,1.003578
19.424,0.859231
19.428,0.889025
19.432,0.88261
19.436,0.884919
19.44,0.802493
19.444,0.89746
19.448,0.885626
19.452,0.861571
19.456,0.775713
19.46,0.805893
19.464,0.738201
19.468,0.747436
19.472,0.851938
19.476,0.728571
19.48,0.643274
19.484,0.689891
19.488,0.59089
19.492,0.575535
19.496,0.559857
19.5,0.56557
19.504,0.609971
19.508,0.566867
19.512,0.538432
19.516,0.431206
19.52,0.432514
19.524,0.446189
19.528,0.373789
19.532,0.363535
19.536,0.371425
19.54,0.303505
19.544,0.303541
19.548,0.342903
19.552,0.225463
19.556,0.2636
19.56,0.202992
19.564,0.071892
19.568,0.060246
19.572,0.043668
19.576,0.012522
19.58,0.020616
19.584,0.025706
19.588,0.027579
19.592,-0.04989
19.596,-0.117643
19.6,-0.229445
19.604,-0.151664
19.608,-0.183623
19.612,-0.205316
19.616,-0.138506
19.62,-0.210922
19.624,-0.262584
19.628,-0.378552
19.632,-0.384409
19.636,-0.391485
19.64,-0.453146
19.644,-0.416608
19.648,-0.45064
19.652,-0.549328
19.656,-0.46105
19.66,-0.541279
19.664,-0.657855
19.668,-0.598456
19.672,-0.605773
19.676,-0.594576
19.68,-0.682886
19.684,-0.646806
19.688,-0.70041
19.692,-0.79644
19.696,-0.8217
19.7,-0.714385
19.704,-0.729585
19.708,-0.791392
19.712,-0.75017
19.716,-0.788793
19.72,-0.823345
19.724,-0.918215
19.728,-0.800407
19.732,-0.873686
19.736,-0.932496
19.74,-0.958491
19.744,-0.923269
19.748,-1.029842
19.752,-0.920624
19.756,-1.011737
19.76,-0.953101
19.764,-1.004402
19.768,-0.997342
19.772,-1.026872
19.776,-1.001093
19.78,-0.901665
19.784,-0.929077
19.788,-0.981894
19.792,-1.001262
19.796,-0.957256
19.8,-0.941528
19.804,-1.03717
19.808,-0.996299
19.812,-1.079369
19.816,-0.927062
19.82,-0.874017
19.824,-0.966427
19.828,-1.068961
19.832,-0.92367
19.836,-0.989856
19.84,-0.967496
19.844,-0.891828
19.848,-0.898417
19.852,-0.922709
19.856,-0.917126
19.86,-0.863892
19.864,-0.875403
19.868,-0.89436
19.872,-0.838732
19.876,-0.787583
19.88,-0.795194
19.884,-0.837975
19.888,-0.698159
19.892,-0.864186
19.896,-0.728536
19.9,-0.715557
19.904,-0.654845
19.908,-0.611275
19.912,-0.559543
19.916,-0.627465
19.92,-0.53794
19.924,-0.532387
19.928,-0.60217
19.932,-0.395512
19.936,-0.535977
19.94,-0.416141
19.944,-0.390298
19.948,-0.368321
19.952,-0.378791
19.956,-0.284338
19.96,-0.37506
19.964,-0.271404
19.968,-0.267134
19.972,-0.243415
19.976,-0.158532
19.98,-0.096352
19.984,-0.137508
19.988,-0.05132
19.992,-0.057795
19.996,-0.074791
20.0,-0.012898
20.004,0.01518
20.008,0.025449
20.012,0.111779
20.016,0.132077
20.02,0.070693
20.024,0.097393
20.028,0.230785
20.032,0.198176
20.036,0.283215
20.04,0.336088
20.044,0.262153
20.048,0.283486
20.052,0.465824
20.056,0.427374
20.06,0.416154
20.064,0.417341
20.068,0.465017
20.072,0.457064
20.076,0.586348
20.08,0.528431
20.084,0.646521
20.088,0.59585
20.092,0.587191
20.096,0.640939
20.1,0.553339
20.104,0.700179
20.108,0.71874
20.112,0.78885
20.116,0.672984
20.12,0.844382
20.124,0.845592
20.128,0.884706
20.132,0.836263
20.136,0.905625
20.14,0.796622
20.144,0.920298
20.148,0.859746
20.152,0.828574
20.156,0.86695
20.16,0.934605
20.164,0.903437
20.168,0.972919
20.172,0.872299
20.176,0.864076
20.18,1.045887
20.184,1.028407
20.188,0.935806
20.192,0.992277
20.196,1.046655
20.2,1.018987
20.204,1.006877
20.208,1.054755
20.212,0.963082
20.216,0.999889
20.22,0.995241
20.224,0.979393
20.228,0.969536
20.232,0.987765
20.236,0.980042
20.24,0.91921
20.244,1.004148
20.248,0.906789
20.252,0.935377
20.256,0.921345
20.26,0.942982
20.264,0.807249
20.268,0.945046
20.272,0.853129
20.276,0.933648
20.28,0.833618
20.284,0.839182
20.288,0.920645
20.292,0.79367
20.296,0.851327
20.3,0.772465
20.304,0.771712
20.308,0.734185
20.312,0.75216
20.316,0.653926
20.32,0.616809
20.324,0.611287
20.328,0.624819
20.332,0.584848
20.336,0.606915
20.34,0.611631
20.344,0.472099
20.348,0.458215
20.352,0.396673
20.356,0.54315
20.36,0.429609
20.364,0.410733
20.368,0.291749
20.372,0.33039
20.376,0.3273
20.38,0.260314
20.384,0.297603
20.388,0.330054
20.392,0.137559
20.396,0.104089
20.4,0.081445
20.404,0.175669
20.408,0.117416
20.412,0.028402
20.416,0.006855
20.42,-0.065957
20.424,-0.010763
20.428,-0.104342
20.432,-0.128357
20.436,-0.114815
20.44,-0.184423
20.444,-0.216381
20.448,-0.233528
20.452,-0.223499
20.456,-0.209914
20.46,-0.291669
20.464,-0.309191
20.468,-0.387446
20.472,-0.440595
20.476,-0.39989
20.48,-0.451018
20.484,-0.557284
20.488,-0.528686
20.492,-0.542092
20.496,-0.588645
20.5,-0.513698
20.504,-0.587922
20.508,-0.566827
20.512,-0.645308
20.516,-0.676805
20.52,-0.74948
20.524,-0.72319
20.528,-0.743612
20.532,-0.832422
20.536,-0.810149
20.54,-0.817731
20.544,-0.798558
20.548,-0.813085
20.552,-0.881378
20.556,-0.844253
20.56,-0.891395
20.564,-1.039565
20.568,-0.933297
20.572,-0.867263
20.576,-1.016616
20.58,-0.937356
20.584,-0.873335
20.588,-0.999369
20.592,-0.969098
20.596,-1.041391
20.6,-0.900926
20.604,-0.991658
20.608,-0.989465
20.612,-0.927485
20.616,-0.964625
20.62,-1.043071
20.624,-1.032335
20.628,-0.974998
20.632,-1.029814
20.636,-1.102425
20.64,-0.996273
20.644,-1.063767
20.648,-0.904187
20.652,-0.970511
20.656,-1.018067
20.66,-1.000313
20.664,-1.051547
20.668,-1.002875
20.672,-0.887049
20.676,-0.815385
20.68,-0.878921
20.684,-0.907278
20.688,-0.910887
20.692,-0.922918
20.696,-0.757113
20.7,-0.853765
20.704,-0.722005
20.708,-0.740816
20.712,-0.8795
20.716,-0.807005
20.72,-0.787704
20.724,-0.738102
20.728,-0.716315
20.732,-0.542029
20.736,-0.723614
20.74,-0.635607
20.744,-0.592945
20.748,-0.599996
20.752,-0.57001
20.756,-0.602838
20.76,-0.51985
20.764,-0.473704
20.768,-0.45654
20.772,-0.417625
20.776,-0.348315
20.78,-0.344525
20.784,-0.359882
20.788,-0.393776
20.792,-0.336626
20.796,-0.288766
20.8,-0.236073
20.804,-0.243286
20.808,-0.236636
20.812,-0.219567
20.816,-0.212877
20.82,-0.112109
20.824,-0.143797
20.828,-0.090228
20.832,-0.029748
20.836,-0.046691
20.84,0.069232
20.844,0.117349
20.848,0.082887
20.852,0.118428
20.856,0.196943
20.86,0.16401
20.864,0.19003
20.868,0.318239
20.872,0.331637
20.876,0.346256
20.88,0.390925
20.884,0.27393
20.888,0.468297
20.892,0.447655
20.896,0.505649
20.9,0.501112
20.904,0.510406
20.908,0.519938
20.912,0.577319
20.916,0.568124
20.92,0.651324
20.924,0.552274
20.928,0.627609
20.932,0.779425
20.936,0.667761
20.94,0.708375
20.944,0.696769
20.948,0.777606
20.952,0.743224
20.956,0.789271
20.96,0.858783
20.964,0.798446
20.968,0.889102
20.972,0.906298
20.976,0.932662
20.98,0.900868
20.984,1.069019
20.988,0.971972
20.992,0.946943
20.996,0.897509
21.0,0.946204
21.004,1.031259
21.008,1.053432
21.012,1.049004
21.016,1.020593
21.02,0.923903
21.024,1.0155
21.028,0.932626
21.032,0.922972
21.036,1.011045
21.04,1.026081
21.044,1.045014
21.048,1.023717
21.052,1.023546
21.056,0.944933
21.06,0.985213
21.064,0.9105
21.068,0.880185
21.072,1.010992
21.076,0.929024
21.08,1.002147
21.084,1.004909
21.088,0.908631
21.092,0.958364
21.096,0.884197
21.1,0.812533
21.104,0.897742
21.108,0.853971
21.112,0.84065
21.116,0.945778
21.12,0.754303
21.124,0.832569
21.128,0.745775
21.132,0.822295
21.136,0.772464
21.14,0.75648
21.144,0.669569
21.148,0.657182
21.152,0.71984
21.156,0.73942
21.16,0.651707
21.164,0.559061
21.168,0.596569
21.172,0.67616
21.176,0.534567
21.18,0.576715
21.184,0.440326
21.188,0.448524
21.192,0.454482
21.196,0.415861
21.2,0.329805
21.204,0.299444
21.208,0.360821
21.212,0.342187
21.216,0.329163
21.22,0.314467
21.224,0.201513
21.228,0.149556
21.232,0.20285
21.236,0.141015
21.24,0.026204
21.244,-0.006458
21.248,0.039676
21.252,-0.023943
21.256,-0.046545
21.26,-0.0217
21.264,-0.06741
21.268,-0.068807
21.272,-0.261693
21.276,-0.182112
21.28,-0.189536
21.284,-0.329885
21.288,-0.315354
21.292,-0.353431
21.296,-0.338835
21.3,-0.286732
21.304,-0.294865
21.308,-0.464218
21.312,-0.4243
21.316,-0.449403
21.32,-0.484242
21.324,-0.509497
21.328,-0.539599
21.332,-0.495244
21.336,-0.548808
21.34,-0.680699
21.344,-0.611094
21.348,-0.628858
21.352,-0.679713
21.356,-0.660242
21.36,-0.728109
21.364,-0.747519
21.368,-0.77082
21.372,-0.896428
21.376,-0.817446
21.38,-0.864008
21.384,-0.906333
21.388,-0.790954
21.392,-0.852304
21.396,-0.893068
21.4,-0.933067
21.404,-0.902446
21.408,-0.879277
21.412,-0.980945
21.416,-0.949733
21.42,-0.915118
21.424,-1.063481
21.428,-0.976839
21.432,-1.001818
21.436,-0.992547
21.44,-1.015543
21.444,-0.987285
21.448,-0.900785
21.452,-1.015056
21.456,-0.98526
21.46,-0.900184
21.464,-1.026588
21.468,-0.906611
21.472,-0.994429
21.476,-0.902047
21.48,-0.949176
21.484,-0.965978
21.488,-0.978369
21.492,-0.999157
21.496,-0.956153
21.5,-0.906188
21.504,-0.941961
21.508,-0.94653
21.512,-0.931784
21.516,-0.857332
21.52,-0.832583
21.524,-0.913272
21.528,-0.898616
21.532,-0.830704
21.536,-0.757008
21.54,-0.75904
21.544,-0.861144
21.548,-0.793241
21.552,-0.807344
21.556,-0.754274
21.56,-0.640089
21.564,-0.770195
21.568,-0.758128
21.572,-0.696116
21.576,-0.617231
21.58,-0.576893
21.584,-0.561839
21.588,-0.500177
21.592,-0.621857
21.596,-0.448543
21.6,-0.497358
21.604,-0.418535
21.608,-0.494223
21.612,-0.400357
21.616,-0.36098
21.62,-0.286855
21.624,-0.395442
21.628,-0.28589
21.632,-0.312676
21.636,-0.203892
21.64,-0.160849
21.644,-0.105713
21.648,-0.167031
21.652,-0.063997
21.656,-0.012293
21.66,-0.132407
21.664,0.010512
21.668,0.057978
21.672,0.027265
21.676,0.009775
21.68,0.14751
21.684,0.070343
21.688,0.151239
21.692,0.187843
21.696,0.255146
21.7,0.217358
21.704,0.243555
21.708,0.311572
21.712,0.385508
21.716,0.477819
21.72,0.316
21.724,0.434712
21.728,0.391809
21.732,0.52386
21.736,0.452347
21.74,0.491442
21.744,0.521134
21.748,0.571709
21.752,0.616078
21.756,0.647956
21.76,0.646768
21.764,0.603258
21.768,0.72823
21.772,0.710651
21.776,0.792196
21.78,0.718864
21.784,0.693594
21.788,0.790759
21.792,0.875289
21.796,0.835833
21.8,0.834344
21.804,0.816584
21.808,0.962981
21.812,0.837809
21.816,0.866406
21.82,0.943743
21.824,0.834173
21.828,1.001594
21.832,0.979112
21.836,1.002039
21.84,0.993287
21.844,0.964752
21.848,0.926193
21.852,0.977997
21.856,0.940994
21.86,1.017919
21.864,1.036902
21.868,1.072448
21.872,1.018333
21.876,1.0462
21.88,0.984432
21.884,0.973785
21.888,1.018884
21.892,0.972473
21.896,1.00095
21.9,0.929228
21.904,0.932109
21.908,1.000976
21.912,1.005673
21.916,0.903315
21.92,0.976521
21.924,0.905889
21.928,0.922038
21.932,0.979909
21.936,0.936458
21.94,0.922085
21.944,0.963136
21.948,0.817118
21.952,0.786858
21.956,0.783126
21.96,0.788842
21.964,0.665445
21.968,0.753695
21.972,0.717036
21.976,0.762975
21.98,0.720271
21.984,0.650839
21.988,0.687977
21.992,0.671649
21.996,0.573486
22.0,0.563134
22.004,0.451854
22.008,0.483414
22.012,0.475159
22.016,0.489861
22.02,0.412311
22.024,0.406917
22.028,0.343939
22.032,0.386009
22.036,0.370643
22.04,0.341062
22.044,0.292856
22.048,0.186213
22.052,0.203059
22.056,0.184267
22.06,0.154858
22.064,0.149003
22.068,0.18663
22.072,0.125952
22.076,0.005888
22.08,0.05905
22.084,0.026989
22.088,-0.075482
22.092,-0.022855
22.096,-0.103378
22.1,-0.195831
22.104,-0.132433
22.108,-0.174064
22.112,-0.225846
22.116,-0.245691
22.12,-0.308906
22.124,-0.271331
22.128,-0.332621
22.132,-0.350437
22.136,-0.368886
22.14,-0.472105
22.144,-0.486345
22.148,-0.578982
22.152,-0.466676
22.156,-0.581501
22.16,-0.539766
22.164,-0.552852
22.168,-0.565771
22.172,-0.680035
22.176,-0.646473
22.18,-0.582498
22.184,-0.602487
22.188,-0.660401
22.192,-0.713812
22.196,-0.801197
22.2,-0.734582
22.204,-0.797285
22.208,-0.779511
22.212,-0.856598
22.216,-0.850271
22.22,-0.849319
22.224,-0.860336
22.228,-0.862292
22.232,-0.929461
22.236,-0.980369
22.24,-0.843838
22.244,-0.811646
22.248,-0.923918
22.252,-1.021808
22.256,-1.002718
22.26,-0.946176
22.264,-0.911266
22.268,-1.044766
22.272,-0.995243
22.276,-0.983235
22.28,-0.952905
22.284,-1.01551
22.288,-1.077809
22.292,-0.968937
22.296,-0.943227
22.3,-1.002156
22.304,-0.975417
22.308,-1.016151
22.312,-1.03056
22.316,-0.931895
22.32,-0.957893
22.324,-0.945912
22.328,-0.887605
22.332,-1.006857
22.336,-0.972253
22.34,-0.926432
22.344,-0.951372
22.348,-0.871988
22.352,-0.907674
22.356,-0.934273
22.36,-0.866895
22.364,-0.846413
22.368,-0.792165
22.372,-0.802447
22.376,-0.781505
22.38,-0.770274
22.384,-0.776711
22.388,-0.783424
22.392,-0.712804
22.396,-0.722874
22.4,-0.600056
22.404,-0.595145
22.408,-0.607717
22.412,-0.596958
22.416,-0.596242
22.42,-0.630325
22.424,-0.552986
22.428,-0.511523
22.432,-0.479066
22.436,-0.440561
22.44,-0.391049
22.444,-0.444403
22.448,-0.416257
22.452,-0.28152
22.456,-0.287151
22.46,-0.31658
22.464,-0.273473
22.468,-0.244076
22.472,-0.207972
22.476,-0.156336
22.48,-0.023476
22.484,-0.110857
22.488,-0.057225
22.492,-0.144606
22.496,-0.0544
22.5,0.061441
22.504,0.05027
22.508,-0.159174
22.512,0.124056
22.516,0.216253
22.52,0.05043
22.524,0.255939
22.528,0.070953
22.532,0.28584
22.536,0.26768
22.54,0.179543
22.544,0.348007
22.548,0.411605
22.552,0.400297
22.556,0.439037
22.56,0.416532
22.564,0.370969
22.568,0.525132
22.572,0.604081
22.576,0.598657
22.58,0.467875
22.584,0.5161
22.588,0.573583
22.592,0.55971
22.596,0.664463
22.6,0.704218
22.604,0.634705
22.608,0.766102
22.612,0.777668
22.616,0.739892
22.62,0.777662
22.624,0.707072
22.628,0.805491
22.632,0.839268
22.636,0.863367
22.64,0.889128
22.644,0.896858
22.648,0.885087
22.652,0.925454
22.656,0.973258
22.66,0.929554
22.664,0.960531
22.668,0.944806
22.672,0.930373
22.676,0.996575
22.68,0.949507
22.684,1.002524
22.688,0.989684
22.692,0.97723
22.696,0.979272
22.7,0.972621
22.704,0.917176
22.708,1.019142
22.712,1.011195
22.716,1.040813
22.72,0.969561
22.724,1.087801
22.728,0.970039
22.732,0.940366
22.736,0.928637
22.74,0.884936
22.744,1.04069
22.748,1.024161
22.752,0.976326
22.756,0.891304
22.76,1.015641
22.764,0.895618
22.768,0.88705
22.772,0.958842
22.776,0.905595
22.78,0.967582
22.784,0.85406
22.788,0.805104
22.792,0.776947
22.796,0.697034
22.8,0.756583
22.804,0.808171
22.808,0.760628
22.812,0.710783
22.816,0.638456
22.82,0.677356
22.824,0.693856
22.828,0.64137
22.832,0.604225
22.836,0.531553
22.84,0.589753
22.844,0.364295
22.848,0.514055
22.852,0.597001
22.856,0.366212
22.86,0.402307
22.864,0.386348
22.868,0.33563
22.872,0.382267
22.876,0.32546
22.88,0.280567
22.884,0.283682
22.888,0.2153
22.892,0.343905
22.896,0.162761
22.9,0.135097
22.904,0.009836
22.908,0.038126
22.912,0.092547
22.916,-0.061746
22.92,-0.133008
22.924,-0.053648
22.928,-0.01681
22.932,-0.113234
22.936,-0.16206
22.94,-0.267947
22.944,-0.18202
22.948,-0.200993
22.952,-0.352354
22.956,-0.235512
22.96,-0.282659
22.964,-0.292741
22.968,-0.348277
22.972,-0.372521
22.976,-0.406553
22.98,-0.416156
22.984,-0.57709
22.988,-0.587336
22.992,-0.574748
22.996,-0.569613
23.0,-0.568378
23.004,-0.59568
23.008,-0.57963
23.012,-0.601055
23.016,-0.724494
23.02,-0.690721
23.024,-0.766178
23.028,-0.753677
23.032,-0.747977
23.036,-0.953608
23.04,-0.681005
23.044,-0.790912
23.048,-0.865937
23.052,-0.755943
23.056,-0.885068
23.06,-0.875665
23.064,-0.92044
23.068,-0.826462
23.072,-0.926462
23.076,-0.925051
23.08,-0.882801
23.084,-0.923341
23.088,-0.964056
23.092,-0.913686
23.096,-0.849266
23.1,-0.966417
23.104,-0.981653
23.108,-0.983265
23.112,-0.929679
23.116,-1.027658
23.12,-1.013205
23.124,-1.076844
23.128,-1.058938
23.132,-1.024498
23.136,-0.999359
23.14,-0.905157
23.144,-0.962957
23.148,-1.030605
23.152,-1.015749
23.156,-0.904071
23.16,-0.909051
23.164,-0.95567
23.168,-0.970028
23.172,-0.881618
23.176,-0.976641
23.18,-0.89564
23.184,-0.789042
23.188,-0.879021
23.192,-0.913874
23.196,-0.839583
23.2,-0.867828
23.204,-0.897492
23.208,-0.77544
23.212,-0.736568
23.216,-0.789253
23.22,-0.773113
23.224,-0.782187
23.228,-0.720796
23.232,-0.719959
23.236,-0.720305
23.24,-0.552448
23.244,-0.600446
23.248,-0.571298
23.252,-0.531349
23.256,-0.512045
23.26,-0.54583
23.264,-0.485647
23.268,-0.486371
23.272,-0.424212
23.276,-0.40186
23.28,-0.410507
23.284,-0.429911
23.288,-0.327877
23.292,-0.316839
23.296,-0.372303
23.3,-0.223307
23.304,-0.171102
23.308,-0.063432
23.312,-0.179717
23.316,-0.157254
23.32,-0.155833
23.324,-0.059882
23.328,-0.030086
23.332,-0.050618
23.336,0.011358
23.34,-0.048689
23.344,0.126657
23.348,0.071825
23.352,0.138546
23.356,0.098737
23.36,0.170592
23.364,0.215187
23.368,0.25785
23.372,0.311414
23.376,0.388133
23.38,0.381278
23.384,0.420902
23.388,0.47291
23.392,0.456537
23.396,0.453274
23.4,0.532209
23.404,0.56161
23.408,0.566131
23.412,0.48623
23.416,0.541638
23.42,0.594188
23.424,0.670577
23.428,0.653621
23.432,0.734028
23.436,0.764826
23.44,0.780268
23.444,0.801175
23.448,0.708964
23.452,0.804169
23.456,0.768175
23.46,0.733886
23.464,0.819011
23.468,0.915909
23.472,0.888224
23.476,0.980805
23.48,0.902703
23.484,1.029346
23.488,0.928121
23.492,0.931823
23.496,0.877336
23.5,1.006585
23.504,0.934836
23.508,0.935603
23.512,1.039149
23.516,1.039244
23.52,1.043289
23.524,0.973032
23.528,0.992147
23.532,0.994352
23.536,1.038213
23.54,1.077599
23.544,1.018253
23.548,1.097605
23.552,1.041826
23.556,0.982426
23.56,1.031897
23.564,1.071153
23.568,1.080268
23.572,1.033305
23.576,0.967964
23.58,0.947687
23.584,0.978295
23.588,1.023296
23.592,0.950537
23.596,0.939981
23.6,0.907397
23.604,0.875182
23.608,0.869408
23.612,0.869426
23.616,0.932916
23.62,0.81861
23.624,0.816056
23.628,0.752247
23.632,0.812714
23.636,0.825876
23.64,0.818738
23.644,0.726981
23.648,0.724179
23.652,0.6658
23.656,0.677281
23.66,0.64339
23.664,0.606845
23.668,0.58651
23.672,0.577382
23.676,0.514738
23.68,0.491498
23.684,0.562711
23.688,0.586156
23.692,0.363286
23.696,0.333021
23.7,0.320267
23.704,0.334756
23.708,0.356195
23.712,0.312172
23.716,0.262157
23.72,0.250718
23.724,0.160178
23.728,0.15291
23.732,0.134296
23.736,0.026151
23.74,0.017261
23.744,-0.010855
23.748,0.053284
23.752,-0.002811
23.756,-0.01467
23.76,-0.16731
23.764,-0.17954
23.768,-0.10214
23.772,-0.30405
23.776,-0.133551
23.78,-0.315437
23.784,-0.211388
23.788,-0.327039
23.792,-0.258961
23.796,-0.179512
23.8,-0.481783
23.804,-0.361225
23.808,-0.513912
23.812,-0.42929
23.816,-0.487681
23.82,-0.497134
23.824,-0.57503
23.828,-0.515759
23.832,-0.65204
23.836,-0.54185
23.84,-0.648154
23.844,-0.721015
23.848,-0.59373
23.852,-0.698829
23.856,-0.621431
23.86,-0.676445
23.864,-0.797449
23.868,-0.781132
23.872,-0.789464
23.876,-0.737111
23.88,-0.80872
23.884,-0.838196
23.888,-0.872649
23.892,-0.880043
23.896,-0.826347
23.9,-0.904642
23.904,-0.937005
23.908,-0.957074
23.912,-0.967285
23.916,-1.019596
23.92,-0.996041
23.924,-0.89176
23.928,-0.98429
23.932,-0.945133
23.936,-1.109794
23.94,-0.962046
23.944,-1.002234
23.948,-1.021038
23.952,-0.989812
23.956,-1.024637
23.96,-1.106115
23.964,-0.952975
23.968,-0.985194
23.972,-1.010393
23.976,-1.039451
23.98,-1.060179
23.984,-0.970138
23.988,-0.894415
23.992,-0.957797
23.996,-1.02908
24.0,-0.939801
24.004,-0.943973
24.008,-0.887497
24.012,-0.888909
24.016,-1.056247
24.02,-0.866579
24.024,-0.930088
24.028,-0.936273
24.032,-0.859096
24.036,-0.812836
24.04,-0.898376
24.044,-0.763323
24.048,-0.74187
24.052,-0.758465
24.056,-0.78428
24.06,-0.769278
24.064,-0.647768
24.068,-0.752745
24.072,-0.601465
24.076,-0.639856
24.08,-0.612722
24.084,-0.669116
24.088,-0.566297
24.092,-0.503024
24.096,-0.57478
24.1,-0.456822
24.104,-0.450659
24.108,-0.46024
24.112,-0.357871
24.116,-0.482906
24.12,-0.327309
24.124,-0.235207
24.128,-0.21543
24.132,-0.238924
24.136,-0.24425
24.14,-0.2315
24.144,-0.185218
24.148,-0.113089
24.152,-0.150721
24.156,-0.042467
24.16,0.056414
24.164,-0.023199
24.168,-0.057167
24.172,-0.027036
24.176,0.109142
24.18,0.097374
24.184,0.17416
24.188,0.133475
24.192,0.231381
24.196,0.211454
24.2,0.212065
24.204,0.257734
24.208,0.246773
24.212,0.434656
24.216,0.358627
24.22,0.423599
24.224,0.392102
24.228,0.393539
24.232,0.461226
24.236,0.554334
24.24,0.499138
24.244,0.507071
24.248,0.583292
24.252,0.624869
24.256,0.705913
24.26,0.664743
24.264,0.701953
24.268,0.727805
24.272,0.655649
24.276,0.685943
24.28,0.700057
24.284,0.7071
24.288,0.832233
24.292,0.824994
24.296,0.831761
24.3,0.714692
24.304,0.962876
24.308,0.83038
24.312,0.991879
24.316,0.830213
24.32,0.874621
24.324,0.816832
24.328,0.955971
24.332,0.892839
24.336,0.903427
24.34,0.896756
24.344,1.011676
24.348,1.014923
24.352,1.075603
24.356,0.955471
24.36,1.004552
24.364,0.932096
24.368,0.981856
24.372,0.973802
24.376,1.023194
24.38,1.050141
24.384,1.047252
24.388,0.953059
24.392,1.04172
24.396,0.985287
24.4,0.966057
24.404,0.940765
24.408,0.941208
24.412,1.048454
24.416,0.967968
24.42,0.951721
24.424,0.919413
24.428,1.043511
24.432,0.974312
24.436,0.860031
24.44,0.86861
24.444,0.856984
24.448,0.859605
24.452,0.801091
24.456,0.841173
24.46,0.874171
24.464,0.717491
24.468,0.707659
24.472,0.720107
24.476,0.701947
24.48,0.802573
24.484,0.73096
24.488,0.705695
24.492,0.622267
24.496,0.597598
24.5,0.5152
24.504,0.602209
24.508,0.5625
24.512,0.576583
24.516,0.475611
24.52,0.452491
24.524,0.441092
24.528,0.4498
24.532,0.303942
24.536,0.38616
24.54,0.319919
24.544,0.239306
24.548,0.159037
24.552,0.227233
24.556,0.277018
24.56,0.258757
24.564,0.163023
24.568,0.213454
24.572,0.0832
24.576,0.102929
24.58,0.002569
24.584,-0.030756
24.588,-0.069054
24.592,-0.168325
24.596,-0.031005
24.6,-0.157415
24.604,-0.195265
24.608,-0.243911
24.612,-0.224681
24.616,-0.155644
24.62,-0.168263
24.624,-0.384881
24.628,-0.348171
24.632,-0.410477
24.636,-0.337326
24.64,-0.400046
24.644,-0.47346
24.648,-0.464856
24.652,-0.518784
24.656,-0.440178
24.66,-0.519046
24.664,-0.53791
24.668,-0.729234
24.672,-0.623173
24.676,-0.539055
24.68,-0.599705
24.684,-0.780557
24.688,-0.725439
24.692,-0.790763
24.696,-0.665386
24.7,-0.758299
24.704,-0.827774
24.708,-0.805829
24.712,-0.955324
24.716,-0.895872
24.72,-0.855704
24.724,-0.830366
24.728,-0.984044
24.732,-0.919559
24.736,-0.86272
24.74,-0.99765
24.744,-0.92465
24.748,-0.94299
24.752,-0.869889
24.756,-0.975565
24.76,-0.980212
24.764,-0.935573
24.768,-1.050439
24.772,-1.00007
24.776,-1.015818
24.78,-1.003079
24.784,-0.955909
24.788,-0.97191
24.792,-1.037431
24.796,-0.992631
24.8,-0.923505
24.804,-1.037248
24.808,-0.985168
24.812,-0.997929
24.816,-0.986367
24.82,-1.058801
24.824,-0.899893
24.828,-1.001428
24.832,-0.902811
24.836,-0.97572
24.84,-0.965604
24.844,-0.8625
24.848,-0.86145
24.852,-0.887871
24.856,-0.846589
24.86,-0.884611
24.864,-0.855348
24.868,-0.87198
24.872,-0.776901
24.876,-0.839233
24.88,-0.712031
24.884,-0.783091
24.888,-0.746587
24.892,-0.689309
24.896,-0.705024
24.9,-0.699443
24.904,-0.663755
24.908,-0.594668
24.912,-0.649024
24.916,-0.598156
24.92,-0.566755
24.924,-0.498948
24.928,-0.521585
24.932,-0.400124
24.936,-0.471865
24.94,-0.449
24.944,-0.418347
24.948,-0.447935
24.952,-0.405899
24.956,-0.352234
24.96,-0.24025
24.964,-0.269769
24.968,-0.263172
24.972,-0.148224
24.976,-0.102411
24.98,-0.087456
24.984,-0.162999
24.988,-0.115117
24.992,0.030405
24.996,-0.018098
25.0,-0.013381
25.004,0.066072
25.008,0.110647
25.012,0.061782
25.016,0.131317
25.02,0.196554
25.024,0.121955
25.028,0.210168
25.032,0.183221
25.036,0.218934
25.04,0.268887
25.044,0.349556
25.048,0.337961
25.052,0.349682
25.056,0.412373
25.06,0.379768
25.064,0.485478
25.068,0.547108
25.072,0.512633
25.076,0.532045
25.08,0.585941
25.084,0.490421
25.088,0.642722
25.092,0.794453
25.096,0.65612
25.1,0.678591
25.104,0.743398
25.108,0.809513
25.112,0.796361
25.116,0.659519
25.12,0.814458
25.124,0.933159
25.128,0.853226
25.132,0.781169
25.136,0.869021
25.14,0.806149
25.144,0.946286
25.148,0.85051
25.152,0.914857
25.156,0.880268
25.16,0.907007
25.164,1.018959
25.168,0.959288
25.172,0.934751
25.176,0.913169
25.18,0.883683
25.184,0.920653
25.188,0.993869
25.192,1.041438
25.196,0.967662
25.2,1.076554
25.204,0.963591
25.208,0.988096
25.212,0.945639
25.216,1.047868
25.22,1.101009
25.224,0.904941
25.228,0.971718
25.232,1.04736
25.236,0.905974
25.24,0.999966
25.244,1.025132
25.248,0.95952
25.252,0.973802
25.256,1.024154
25.26,1.022499
25.264,0.910106
25.268,0.873882
25.272,0.84098
25.276,0.921498
25.28,0.788938
25.284,0.828995
25.288,0.83009
25.292,0.782387
25.296,0.803375
25.3,0.898739
25.304,0.744862
25.308,0.708916
25.312,0.760534
25.316,0.700182
25.32,0.737979
25.324,0.65145
25.328,0.607413
25.332,0.506702
25.336,0.490415
25.34,0.454609
25.344,0.539857
25.348,0.4268
25.352,0.531264
25.356,0.443143
25.36,0.402166
25.364,0.34455
25.368,0.389872
25.372,0.290224
25.376,0.252569
25.38,0.332369
25.384,0.261549
25.388,0.202716
25.392,0.216984
25.396,0.15564
25.4,0.144484
25.404,0.054517
25.408,0.168819
25.412,0.006198
25.416,0.082827
25.42,-0.034574
25.424,-0.014909
25.428,-0.048636
25.432,-0.058011
25.436,-0.187285
25.44,-0.121241
25.444,-0.112311
25.448,-0.246991
25.452,-0.261532
25.456,-0.318411
25.46,-0.338265
25.464,-0.263786
25.468,-0.427665
25.472,-0.452311
25.476,-0.352044
25.48,-0.428352
25.484,-0.380134
25.488,-0.534805
25.492,-0.531633
25.496,-0.596156
25.5,-0.58062
25.504,-0.700618
25.508,-0.601238
25.512,-0.642306
25.516,-0.683752
25.52,-0.722168
25.524,-0.768524
25.528,-0.707879
25.532,-0.822621
25.536,-0.757578
25.54,-0.697844
25.544,-0.744956
25.548,-0.911409
25.552,-0.879149
25.556,-0.846624
25.56,-0.885805
25.564,-0.966054
25.568,-0.889796
25.572,-0.921713
25.576,-0.836809
25.58,-0.955652
25.584,-0.894198
25.588,-1.024693
25.592,-1.020606
25.596,-0.940107
25.6,-0.928101
25.604,-1.035361
25.608,-0.990593
25.612,-1.064279
25.616,-1.006759
25.62,-0.957443
25.624,-1.02172
25.628,-1.012196
25.632,-1.055097
25.636,-1.028981
25.64,-0.905706
25.644,-0.98611
25.648,-1.035116
25.652,-0.995089
25.656,-1.05268
25.66,-1.01609
25.664,-0.88906
25.668,-0.955026
25.672,-0.843328
25.676,-0.931742
25.68,-0.91704
25.684,-0.870631
25.688,-1.022918
25.692,-0.864846
25.696,-0.862551
25.7,-0.770026
25.704,-0.779552
25.708,-0.867176
25.712,-0.730353
25.716,-0.786823
25.72,-0.799474
25.724,-0.724254
25.728,-0.723438
25.732,-0.614918
25.736,-0.652722
25.74,-0.636773
25.744,-0.578738
25.748,-0.545274
25.752,-0.536339
25.756,-0.479624
25.76,-0.494741
25.764,-0.490892
25.768,-0.410961
25.772,-0.45068
25.776,-0.417283
25.78,-0.305295
25.784,-0.28235
25.788,-0.335597
25.792,-0.329303
25.796,-0.204625
25.8,-0.208669
25.804,-0.20359
25.808,-0.205943
25.812,-0.143572
25.816,-0.131404
25.82,-0.133579
25.824,-0.063861
25.828,-0.02693
25.832,-0.028823
25.836,0.065296
25.84,0.114686
25.844,0.128833
25.848,0.096546
25.852,0.17807
25.856,0.17397
25.86,0.137923
25.864,0.262803
25.868,0.265721
25.872,0.417105
25.876,0.389042
25.88,0.3802
25.884,0.385252
25.888,0.408791
25.892,0.377868
25.896,0.36816
25.9,0.438126
25.904,0.505574
25.908,0.428426
25.912,0.531745
25.916,0.571331
25.92,0.597159
25.924,0.59851
25.928,0.637612
25.932,0.763379
25.936,0.732172
25.94,0.692294
25.944,0.737481
25.948,0.759398
25.952,0.74164
25.956,0.760095
25.96,0.866865
25.964,0.812395
25.968,0.794937
25.972,0.863029
25.976,0.885815
25.98,0.795206
25.984,0.904918
25.988,0.962644
25.992,0.95326
25.996,1.052795
26.0,1.013612
26.004,1.032389
26.008,1.107959
26.012,1.012995
26.016,0.989486
26.02,1.035373
26.024,0.96318
26.028,1.00008
26.032,0.964959
26.036,1.018987
26.04,0.967326
26.044,0.965499
26.048,1.019534
26.052,0.990081
26.056,0.89779
26.06,0.917684
26.064,0.928493
26.068,0.936205
26.072,0.994681
26.076,0.977628
26.08,1.011786
26.084,0.987131
26.088,0.993192
26.092,0.959268
26.096,0.927739
26.1,0.959795
26.104,0.937547
26.108,0.896319
26.112,0.926209
26.116,0.729721
26.12,0.816073
26.124,0.798136
26.128,0.85315
26.132,0.855452
26.136,0.685033
26.14,0.808071
26.144,0.658241
26.148,0.638401
26.152,0.661763
26.156,0.63497
26.16,0.54977
26.164,0.636426
26.168,0.613593
26.172,0.607488
26.176,0.507773
26.18,0.501644
26.184,0.475821
26.188,0.535028
26.192,0.281792
26.196,0.348147
26.2,0.368402
26.204,0.285641
26.208,0.29849
26.212,0.276306
26.216,0.220671
26.22,0.227494
26.224,0.22619
26.228,0.153303
26.232,0.112641
26.236,0.097073
26.24,0.074955
26.244,-0.041792
26.248,0.038157
26.252,-0.037629
26.256,0.017853
26.26,-0.045774
26.264,-0.046858
26.268,-0.185851
26.272,-0.183686
26.276,-0.256905
26.28,-0.25953
26.284,-0.19095
26.288,-0.208235
26.292,-0.368813
26.296,-0.362834
26.3,-0.371934
26.304,-0.366714
26.308,-0.511494
26.312,-0.530778
26.316,-0.452862
26.32,-0.601075
26.324,-0.551785
26.328,-0.546682
26.332,-0.558839
26.336,-0.611018
26.34,-0.645979
26.344,-0.608652
26.348,-0.659217
26.352,-0.727812
26.356,-0.714927
26.36,-0.718355
26.364,-0.67163
26.368,-0.737566
26.372,-0.734788
26.376,-0.843956
26.38,-0.856805
26.384,-0.85878
26.388,-0.869834
26.392,-0.927916
26.396,-0.82828
26.4,-0.860659
26.404,-0.932539
26.408,-0.896763
26.412,-0.928452
26.416,-0.9135
26.42,-1.025737
26.424,-0.973964
26.428,-0.976862
26.432,-0.949172
26.436,-1.017278
26.44,-1.115458
26.444,-1.048251
26.448,-1.000019
26.452,-0.995666
26.456,-0.915658
26.46,-0.970784
26.464,-0.995011
26.468,-0.998965
26.472,-0.939486
26.476,-1.020647
26.48,-0.9937
26.484,-1.035796
26.488,-0.904142
26.492,-0.94833
26.496,-0.995319
26.5,-0.956779
26.504,-0.915823
26.508,-0.943235
26.512,-0.945969
26.516,-0.939669
26.52,-0.876893
26.524,-0.897817
26.528,-0.887874
26.532,-0.916475
26.536,-0.829503
26.54,-0.8254
26.544,-0.814634
26.548,-0.770099
26.552,-0.723414
26.556,-0.70582
26.56,-0.692673
26.564,-0.711098
26.568,-0.705534
26.572,-0.706884
26.576,-0.661254
26.58,-0.606948
26.584,-0.623026
26.588,-0.554159
26.592,-0.581976
26.596,-0.591009
26.6,-0.440783
26.604,-0.478831
26.608,-0.469904
26.612,-0.455297
26.616,-0.351642
26.62,-0.275898
26.624,-0.336333
26.628,-0.298206
26.632,-0.204833
26.636,-0.319689
26.64,-0.101367
26.644,-0.047867
26.648,-0.275596
26.652,-0.115234
26.656,-0.116285
26.66,-0.063483
26.664,-0.041024
26.668,0.050641
26.672,0.034573
26.676,0.024768
26.68,0.091752
26.684,0.156058
26.688,0.100971
26.692,0.107538
26.696,0.319007
26.7,0.216569
26.704,0.270916
26.708,0.286736
26.712,0.362593
26.716,0.452086
26.72,0.42037
26.724,0.343027
26.728,0.376929
26.732,0.452972
26.736,0.485863
26.74,0.439077
26.744,0.591564
26.748,0.521203
26.752,0.674583
26.756,0.714802
26.76,0.634643
26.764,0.691702
26.768,0.630243
26.772,0.744483
26.776,0.7092
26.78,0.69989
26.784,0.759241
26.788,0.769173
26.792,0.794234
26.796,0.87527
26.8,0.805063
26.804,0.946853
26.808,0.80884
26.812,0.97006
26.816,0.85185
26.82,0.915191
26.824,0.902465
26.828,0.920678
26.832,0.98797
26.836,1.032068
26.84,1.024908
26.844,0.952565
26.848,0.988563
26.852,0.945897
26.856,0.940179
26.86,0.936296
26.864,0.974684
26.868,1.011088
26.872,0.904153
26.876,0.997654
26.88,1.075091
26.884,1.053794
26.888,0.965941
26.892,0.921953
26.896,1.010482
26.9,0.866416
26.904,1.031698
26.908,0.958526
26.912,1.052904
26.916,0.86625
26.92,0.988898
26.924,0.9275
26.928,0.90466
26.932,0.840569
26.936,0.925871
26.94,0.916098
26.944,0.956952
26.948,0.902714
26.952,0.806457
26.956,0.769039
26.96,0.733142
26.964,0.856834
26.968,0.725158
26.972,0.818276
26.976,0.75004
26.98,0.719145
26.984,0.665531
26.988,0.691513
26.992,0.634712
26.996,0.593453
27.0,0.622585
27.004,0.555924
27.008,0.49803
27.012,0.542274
27.016,0.482953
27.02,0.484025
27.024,0.409896
27.028,0.344749
27.032,0.464207
27.036,0.426688
27.04,0.365133
27.044,0.272848
27.048,0.248251
27.052,0.303173
27.056,0.186941
27.06,0.143395
27.064,0.238866
27.068,0.112969
27.072,0.173769
27.076,-0.014656
27.08,0.051039
27.084,0.098528
27.088,-0.033691
27.092,-0.078499
27.096,-0.153747
27.1,-0.071216
27.104,-0.1937
27.108,-0.189652
27.112,-0.276188
27.116,-0.165973
27.12,-0.215208
27.124,-0.303417
27.128,-0.388156
27.132,-0.281964
27.136,-0.40504
27.14,-0.469636
27.144,-0.529737
27.148,-0.500783
27.152,-0.567645
27.156,-0.552031
27.16,-0.509174
27.164,-0.590171
27.168,-0.578104
27.172,-0.656001
27.176,-0.639957
27.18,-0.569967
27.184,-0.705627
27.188,-0.690546
27.192,-0.808963
27.196,-0.674936
27.2,-0.794374
27.204,-0.736858
27.208,-0.813696
27.212,-0.794377
27.216,-0.808073
27.22,-0.880149
27.224,-0.818054
27.228,-0.924928
27.232,-0.861604
27.236,-0.932715
27.24,-0.907599
27.244,-0.959208
27.248,-0.94379
27.252,-1.009343
27.256,-0.95168
27.26,-0.969422
27.264,-1.005329
27.268,-0.986873
27.272,-0.982326
27.276,-1.023849
27.28,-1.002572
27.284,-1.048607
27.288,-0.882331
27.292,-0.947041
27.296,-0.985812
27.3,-0.939421
27.304,-1.094642
27.308,-1.120311
27.312,-1.008236
27.316,-1.052145
27.32,-0.989098
27.324,-0.960148
27.328,-0.91669
27.332,-1.011028
27.336,-0.92467
27.34,-0.933609
27.344,-0.905781
27.348,-0.937133
27.352,-0.829147
27.356,-0.889822
27.36,-0.781475
27.364,-0.894449
27.368,-0.801757
27.372,-0.825088
27.376,-0.820949
27.38,-0.754673
27.384,-0.782258
27.388,-0.880711
27.392,-0.880389
27.396,-0.642597
27.4,-0.623034
27.404,-0.567887
27.408,-0.640235
27.412,-0.680513
27.416,-0.612824
27.42,-0.566698
27.424,-0.592529
27.428,-0.434164
27.432,-0.378564
27.436,-0.440124
27.44,-0.437659
27.444,-0.474544
27.448,-0.304781
27.452,-0.350247
27.456,-0.340158
27.46,-0.272983
27.464,-0.297398
27.468,-0.231596
27.472,-0.281674
27.476,-0.125615
27.48,-0.155446
27.484,-0.062405
27.488,-0.100411
27.492,-0.067092
27.496,-0.090771
27.5,0.037988
27.504,-0.013637
27.508,0.035961
27.512,0.090407
27.516,0.126406
27.52,0.064921
27.524,0.168429
27.528,0.249312
27.532,0.220023
27.536,0.256876
27.54,0.305162
27.544,0.319402
27.548,0.302537
27.552,0.380286
27.556,0.459499
27.56,0.384557
27.564,0.445314
27.568,0.421457
27.572,0.563662
27.576,0.53756
27.58,0.524759
27.584,0.596458
27.588,0.555701
27.592,0.587684
27.596,0.589247
27.6,0.631208
27.604,0.774085
27.608,0.69059
27.612,0.770924
27.616,0.725484
27.62,0.824265
27.624,0.753258
27.628,0.824066
27.632,0.841541
27.636,0.97132
27.64,0.901705
27.644,0.855001
27.648,0.932556
27.652,1.018053
27.656,0.841675
27.66,0.892205
27.664,0.932807
27.668,0.933261
27.672,0.946073
27.676,0.905219
27.68,1.047466
27.684,0.912086
27.688,0.97826
27.692,1.044718
27.696,0.99417
27.7,0.949057
27.704,0.932033
27.708,0.988497
27.712,0.961766
27.716,1.008591
27.72,0.926061
27.724,1.033683
27.728,0.994804
27.732,0.993613
27.736,1.050375
27.74,0.949742
27.744,0.927767
27.748,0.92822
27.752,0.936662
27.756,0.93156
27.76,0.883542
27.764,0.81205
27.768,0.872455
27.772,0.90497
27.776,0.879462
27.78,0.917504
27.784,0.939398
27.788,0.862922
27.792,0.876663
27.796,0.827723
27.8,0.856008
27.804,0.843484
27.808,0.778245
27.812,0.745086
27.816,0.677941
27.82,0.663945
27.824,0.626323
27.828,0.650896
27.832,0.559871
27.836,0.561846
27.84,0.428636
27.844,0.607045
27.848,0.483889
27.852,0.491264
27.856,0.51452
27.86,0.42939
27.864,0.45896
27.868,0.296672
27.872,0.450317
27.876,0.356193
27.88,0.283412
27.884,0.315072
27.888,0.156031
27.892,0.170481
27.896,0.227406
27.9,0.03198
27.904,0.123382
27.908,0.091907
27.912,0.13364
27.916,-0.074121
27.92,0.055351
27.924,-0.083237
27.928,-0.107698
27.932,-0.176453
27.936,-0.199647
27.94,-0.154847
27.944,-0.260249
27.948,-0.197042
27.952,-0.296415
27.956,-0.35289
27.96,-0.347334
27.964,-0.332522
27.968,-0.391321
27.972,-0.403495
27.976,-0.397779
27.98,-0.405459
27.984,-0.501657
27.988,-0.564494
27.992,-0.534142
27.996,-0.53959
28.0,-0.660822
28.004,-0.656444
28.008,-0.671445
28.012,-0.66887
28.016,-0.718926
28.02,-0.667298
28.024,-0.804043
28.028,-0.823251
28.032,-0.780761
28.036,-0.791955
28.04,-0.874299
28.044,-0.84957
28.048,-0.856204
28.052,-0.871977
28.056,-0.860102
28.06,-0.91537
28.064,-0.822192
28.068,-0.884651
28.072,-0.961568
28.076,-0.9278
28.08,-0.93679
28.084,-0.891862
28.088,-0.991358
28.092,-0.930838
28.096,-0.974097
28.1,-0.907709
28.104,-0.922946
28.108,-0.981948
28.112,-1.008314
28.116,-0.972368
28.12,-1.008312
28.124,-0.915956
28.128,-0.995821
28.132,-1.01889
28.136,-1.019543
28.14,-1.054263
28.144,-0.961928
28.148,-1.026002
28.152,-0.924443
28.156,-1.037455
28.16,-0.95902
28.164,-0.899566
28.168,-1.055514
28.172,-0.836951
28.176,-0.948239
28.18,-0.908186
28.184,-0.874103
28.188,-0.852982
28.192,-0.861399
28.196,-0.810232
28.2,-0.818374
28.204,-0.739742
28.208,-0.784375
28.212,-0.694228
28.216,-0.728654
28.22,-0.844539
28.224,-0.603554
28.228,-0.742017
28.232,-0.617064
28.236,-0.668413
28.24,-0.594001
28.244,-0.658194
28.248,-0.56863
28.252,-0.588179
28.256,-0.471647
28.26,-0.503241
28.264,-0.452477
28.268,-0.581124
28.272,-0.450414
28.276,-0.398417
28.28,-0.380193
28.284,-0.315388
28.288,-0.353484
28.292,-0.304186
28.296,-0.218723
28.3,-0.362624
28.304,-0.189902
28.308,-0.206544
28.312,-0.205773
28.316,-0.113491
28.32,-0.038989
28.324,-0.018356
28.328,-0.046957
28.332,0.033734
28.336,0.063508
28.34,0.045876
28.344,0.045684
28.348,0.078597
28.352,0.182172
28.356,0.167965
28.36,0.147401
28.364,0.144923
28.368,0.300006
28.372,0.260088
28.376,0.332698
28.38,0.406628
28.384,0.307347
28.388,0.398348
28.392,0.419517
28.396,0.474097
28.4,0.543712
28.404,0.441487
28.408,0.562193
28.412,0.610538
28.416,0.574392
28.42,0.601058
28.424,0.652519
28.428,0.671929
28.432,0.706302
28.436,0.727129
28.44,0.67121
28.444,0.790412
28.448,0.819153
28.452,0.789342
28.456,0.723844
28.46,0.810602
28.464,0.843105
28.468,0.792442
28.472,0.84718
28.476,0.809446
28.48,0.924206
28.484,0.915254
28.488,0.836956
28.492,0.948272
28.496,0.93848
28.5,0.976877
28.504,0.940366
28.508,0.927881
28.512,0.936545
28.516,0.954424
28.52,0.987627
28.524,0.998539
28.528,0.98516
28.532,0.976179
28.536,0.981517
28.54,1.125307
28.544,0.961309
28.548,0.970961
28.552,1.161659
28.556,1.015217
28.56,0.921462
28.564,1.02799
28.568,0.934852
28.572,1.019413
28.576,0.956132
28.58,0.936532
28.584,1.029949
