timestamp,ppg
0.0,1.518722
0.004,1.464095
0.008,1.503977
0.012,1.521506
0.016,1.534718
0.02,1.523071
0.024,1.508308
0.028,1.536485
0.032,1.544938
0.036,1.551819
0.04,1.594008
0.044,1.557614
0.048,1.595132
0.052,1.599449
0.056,1.622602
0.06,1.607775
0.064,1.633235
0.068,1.620868
0.072,1.639823
0.076,1.607815
0.08,1.591761
0.084,1.658638
0.088,1.666176
0.092,1.673428
0.096,1.659682
0.1,1.70613
0.104,1.673182
0.108,1.696725
0.112,1.70601
0.116,1.734178
0.12,1.699024
0.124,1.697731
0.128,1.68613
0.132,1.752301
0.136,1.734704
0.14,1.740215
0.144,1.798221
0.148,1.746971
0.152,1.718855
0.156,1.745261
0.16,1.733803
0.164,1.749341
0.168,1.753003
0.172,1.752947
0.176,1.740287
0.18,1.803298
0.184,1.780549
0.188,1.773014
0.192,1.795451
0.196,1.792319
0.2,1.790831
0.204,1.801256
0.208,1.792293
0.212,1.804894
0.216,1.808243
0.22,1.797941
0.224,1.791598
0.228,1.827746
0.232,1.788525
0.236,1.806666
0.24,1.807686
0.244,1.787596
0.248,1.78382
0.252,1.792899
0.256,1.789943
0.26,1.770245
0.264,1.78581
0.268,1.803408
0.272,1.822457
0.276,1.807094
0.28,1.742695
0.284,1.806007
0.288,1.780326
0.292,1.798676
0.296,1.787274
0.3,1.781463
0.304,1.780852
0.308,1.77985
0.312,1.804411
0.316,1.774179
0.32,1.793159
0.324,1.786951
0.328,1.778028
0.332,1.725323
0.336,1.779591
0.34,1.74414
0.344,1.763493
0.348,1.725451
0.352,1.716769
0.356,1.775414
0.36,1.712014
0.364,1.749198
0.368,1.723622
0.372,1.70769
0.376,1.709898
0.38,1.679342
0.384,1.699528
0.388,1.672462
0.392,1.680399
0.396,1.700885
0.4,1.681419
0.404,1.640537
0.408,1.680948
0.412,1.65741
0.416,1.640243
0.42,1.65946
0.424,1.63453
0.428,1.607822
0.432,1.661269
0.436,1.617066
0.44,1.60881
0.444,1.595291
0.448,1.619882
0.452,1.578615
0.456,1.550986
0.46,1.561033
0.464,1.593817
0.468,1.576556
0.472,1.547407
0.476,1.572533
0.48,1.552559
0.484,1.524777
0.488,1.51928
0.492,1.52166
0.496,1.490901
0.5,1.50009
0.504,1.498631
0.508,1.451187
0.512,1.473616
0.516,1.46383
0.52,1.482961
0.524,1.418042
0.528,1.439863
0.532,1.430452
0.536,1.45192
0.54,1.424522
0.544,1.454036
0.548,1.424132
0.552,1.395512
0.556,1.4014
0.56,1.382481
0.564,1.399776
0.568,1.349043
0.572,1.352391
0.576,1.37124
0.58,1.379989
0.584,1.304874
0.588,1.369937
0.592,1.333279
0.596,1.292142
0.6,1.26363
0.604,1.287033
0.608,1.311298
0.612,1.304565
0.616,1.31286
0.62,1.283646
0.624,1.267044
0.628,1.275646
0.632,1.279418
0.636,1.27834
0.64,1.253063
0.644,1.282142
0.648,1.247102
0.652,1.237704
0.656,1.239973
0.66,1.268198
0.664,1.240086
0.668,1.225055
0.672,1.253835
0.676,1.274703
0.68,1.232746
0.684,1.250104
0.688,1.243198
0.692,1.207589
0.696,1.217636
0.7,1.189032
0.704,1.208345
0.708,1.197862
0.712,1.200453
0.716,1.191822
0.72,1.199572
0.724,1.214639
0.728,1.200472
0.732,1.164629
0.736,1.186238
0.74,1.170204
0.744,1.205094
0.748,1.21009
0.752,1.205155
0.756,1.184465
0.76,1.205529
0.764,1.191758
0.768,1.179152
0.772,1.2177
0.776,1.220355
0.78,1.224292
0.784,1.194653
0.788,1.232098
0.792,1.200514
0.796,1.225513
0.8,1.204465
0.804,1.212623
0.808,1.171278
0.812,1.216439
0.816,1.227249
0.82,1.220351
0.824,1.266971
0.828,1.212063
0.832,1.227673
0.836,1.224645
0.84,1.235426
0.844,1.271449
0.848,1.284659
0.852,1.245514
0.856,1.249653
0.86,1.245703
0.864,1.29985
0.868,1.301166
0.872,1.281788
0.876,1.261283
0.88,1.268503
0.884,1.303609
0.888,1.31687
0.892,1.27037
0.896,1.311195
0.9,1.35603
0.904,1.325469
0.908,1.365874
0.912,1.355429
0.916,1.327227
0.92,1.34962
0.924,1.359552
0.928,1.349815
0.932,1.35629
0.936,1.412723
0.94,1.370015
0.944,1.418176
0.948,1.394987
0.952,1.410375
0.956,1.429351
0.96,1.413422
0.964,1.444077
0.968,1.399158
0.972,1.456287
0.976,1.405562
0.98,1.457863
0.984,1.486976
0.988,1.489848
0.992,1.458958
0.996,1.469068
1.0,1.486227
1.004,1.511263
1.008,1.474435
1.012,1.522334
1.016,1.536337
1.02,1.531939
1.024,1.555574
1.028,1.556981
1.032,1.54908
1.036,1.528557
1.04,1.577275
1.044,1.562824
1.048,1.577546
1.052,1.605866
1.056,1.63174
1.06,1.609676
1.064,1.628493
1.068,1.595423
1.072,1.636045
1.076,1.636676
1.08,1.669111
1.084,1.640278
1.088,1.65272
1.092,1.685095
1.096,1.66834
1.1,1.654159
1.104,1.733412
1.108,1.666736
1.112,1.692823
1.116,1.706737
1.12,1.710716
1.124,1.707
1.128,1.712398
1.132,1.716555
1.136,1.703957
1.14,1.774158
1.144,1.731487
1.148,1.752409
1.152,1.738209
1.156,1.742083
1.16,1.74419
1.164,1.726261
1.168,1.757843
1.172,1.756547
1.176,1.791583
1.18,1.747514
1.184,1.763029
1.188,1.759554
1.192,1.809149
1.196,1.765509
1.2,1.796563
1.204,1.80696
1.208,1.786692
1.212,1.763953
1.216,1.765897
1.22,1.811881
1.224,1.770794
1.228,1.804979
1.232,1.80037
1.236,1.806383
1.24,1.80884
1.244,1.781113
1.248,1.780466
1.252,1.814275
1.256,1.7872
1.26,1.744405
1.264,1.811815
1.268,1.777358
1.272,1.806481
1.276,1.823862
1.28,1.795021
1.284,1.813096
1.288,1.794565
1.292,1.821363
1.296,1.766314
1.3,1.785153
1.304,1.79636
1.308,1.77649
1.312,1.800568
1.316,1.765932
1.32,1.812836
1.324,1.810596
1.328,1.770329
1.332,1.772107
1.336,1.781091
1.34,1.729554
1.344,1.722939
1.348,1.77003
1.352,1.74595
1.356,1.731356
1.36,1.731376
1.364,1.678555
1.368,1.717443
1.372,1.701032
1.376,1.729156
1.38,1.725265
1.384,1.711337
1.388,1.702026
1.392,1.65836
1.396,1.694192
1.4,1.688924
1.404,1.695085
1.408,1.706283
1.412,1.623701
1.416,1.643317
1.42,1.629681
1.424,1.641324
1.428,1.631403
1.432,1.619631
1.436,1.637964
1.44,1.588409
1.444,1.58257
1.448,1.575799
1.452,1.581906
1.456,1.557314
1.46,1.573636
1.464,1.563971
1.468,1.544183
1.472,1.569982
1.476,1.543878
1.48,1.558853
1.484,1.526208
1.488,1.522114
1.492,1.503818
1.496,1.507398
1.5,1.514245
1.504,1.484234
1.508,1.495295
1.512,1.461147
1.516,1.485072
1.52,1.450802
1.524,1.471966
1.528,1.448713
1.532,1.470506
1.536,1.409637
1.54,1.395869
1.544,1.40579
1.548,1.383195
1.552,1.376062
1.556,1.409038
1.56,1.389479
1.564,1.372994
1.568,1.367948
1.572,1.356921
1.576,1.395133
1.58,1.340764
1.584,1.32247
1.588,1.358369
1.592,1.331767
1.596,1.370595
1.6,1.31314
1.604,1.334541
1.608,1.333337
1.612,1.295456
1.616,1.285338
1.62,1.309463
1.624,1.300703
1.628,1.255695
1.632,1.256177
1.636,1.222996
1.64,1.280754
1.644,1.258877
1.648,1.256287
1.652,1.221269
1.656,1.228859
1.66,1.237142
1.664,1.229295
1.668,1.241302
1.672,1.246982
1.676,1.27724
1.68,1.228152
1.684,1.247736
1.688,1.205877
1.692,1.186202
1.696,1.210057
1.7,1.182729
1.704,1.212737
1.708,1.194776
1.712,1.169425
1.716,1.24154
1.72,1.194563
1.724,1.171242
1.728,1.220825
1.732,1.187344
1.736,1.222963
1.74,1.185924
1.744,1.189395
1.748,1.20692
1.752,1.211888
1.756,1.215583
1.76,1.198797
1.764,1.211732
1.768,1.216829
1.772,1.206873
1.776,1.201141
1.78,1.176408
1.784,1.218803
1.788,1.209354
1.792,1.202113
1.796,1.237999
1.8,1.186126
1.804,1.249984
1.808,1.219256
1.812,1.228827
1.816,1.217527
1.82,1.19521
1.824,1.229055
1.828,1.242008
1.832,1.252469
1.836,1.238781
1.84,1.202851
1.844,1.219988
1.848,1.296139
1.852,1.237679
1.856,1.292654
1.86,1.250164
1.864,1.270075
1.868,1.29125
1.872,1.267503
1.876,1.321049
1.88,1.29615
1.884,1.309413
1.888,1.300531
1.892,1.324867
1.896,1.349197
1.9,1.321039
1.904,1.364414
1.908,1.32385
1.912,1.35773
1.916,1.358695
1.92,1.334102
1.924,1.366402
1.928,1.369013
1.932,1.358623
1.936,1.389748
1.94,1.392488
1.944,1.395155
1.948,1.402345
1.952,1.409087
1.956,1.41076
1.96,1.42819
1.964,1.41984
1.968,1.493223
1.972,1.419306
1.976,1.443238
1.98,1.452285
1.984,1.510701
1.988,1.450999
1.992,1.493445
1.996,1.497429
2.0,1.506672
2.004,1.532266
2.008,1.53939
2.012,1.513579
2.016,1.533989
2.02,1.500318
2.024,1.54705
2.028,1.536627
2.032,1.556185
2.036,1.533574
2.04,1.582704
2.044,1.547954
2.048,1.592078
2.052,1.571753
2.056,1.5864
2.06,1.633532
2.064,1.62917
2.068,1.647297
2.072,1.662329
2.076,1.622417
2.08,1.674506
2.084,1.621777
2.088,1.672474
2.092,1.654052
2.096,1.651575
2.1,1.688625
2.104,1.701278
2.108,1.706613
2.112,1.698414
2.116,1.702443
2.12,1.715901
2.124,1.71687
2.128,1.72692
2.132,1.725334
2.136,1.743131
2.14,1.69861
2.144,1.733261
2.148,1.712793
2.152,1.750436
2.156,1.782017
2.16,1.743817
2.164,1.759803
2.168,1.776185
2.172,1.723333
2.176,1.75771
2.18,1.778738
2.184,1.716632
2.188,1.757987
2.192,1.802316
2.196,1.802957
2.2,1.792803
2.204,1.8052
2.208,1.793917
2.212,1.802597
2.216,1.786867
2.22,1.797002
2.224,1.783358
2.228,1.822408
2.232,1.828515
2.236,1.826438
2.24,1.791246
2.244,1.780711
2.248,1.825516
2.252,1.810854
2.256,1.806359
2.26,1.786735
2.264,1.807353
2.268,1.776378
2.272,1.80982
2.276,1.823584
2.28,1.827307
2.284,1.807351
2.288,1.763849
2.292,1.793561
2.296,1.83035
2.3,1.767945
2.304,1.781714
2.308,1.808569
2.312,1.789866
2.316,1.824175
2.32,1.756791
2.324,1.748357
2.328,1.78917
2.332,1.737138
2.336,1.753323
2.34,1.751985
2.344,1.769899
2.348,1.757187
2.352,1.749611
2.356,1.727838
2.36,1.755454
2.364,1.806792
2.368,1.73508
2.372,1.718086
2.376,1.684838
2.38,1.692615
2.384,1.695529
2.388,1.683425
2.392,1.687986
2.396,1.717939
2.4,1.701279
2.404,1.667004
2.408,1.639753
2.412,1.6843
2.416,1.650106
2.42,1.609996
2.424,1.652123
2.428,1.651648
2.432,1.575795
2.436,1.600921
2.44,1.608228
2.444,1.618083
2.448,1.585968
2.452,1.57247
2.456,1.596429
2.46,1.565241
2.464,1.578122
2.468,1.537683
2.472,1.52546
2.476,1.560173
2.48,1.54265
2.484,1.548558
2.488,1.511946
2.492,1.499171
2.496,1.534753
2.5,1.469541
2.504,1.51749
2.508,1.511337
2.512,1.494604
2.516,1.456135
2.52,1.44607
2.524,1.450731
2.528,1.421592
2.532,1.420853
2.536,1.445613
2.54,1.43838
2.544,1.397123
2.548,1.42441
2.552,1.412803
2.556,1.426805
2.56,1.400945
2.564,1.40376
2.568,1.385229
2.572,1.388464
2.576,1.336384
2.58,1.353039
2.584,1.348133
2.588,1.337573
2.592,1.344959
2.596,1.342507
2.6,1.33151
2.604,1.314082
2.608,1.296978
2.612,1.327827
2.616,1.307191
2.62,1.274264
2.624,1.285331
2.628,1.249041
2.632,1.279453
2.636,1.269757
2.64,1.257357
2.644,1.295805
2.648,1.236407
2.652,1.269226
2.656,1.294555
2.66,1.268247
2.664,1.242111
2.668,1.216264
2.672,1.208071
2.676,1.223617
2.68,1.214812
2.684,1.211037
2.688,1.215951
2.692,1.217656
2.696,1.226807
2.7,1.189927
2.704,1.198799
2.708,1.207192
2.712,1.204601
2.716,1.243548
2.72,1.209959
2.724,1.171722
2.728,1.211225
2.732,1.21283
2.736,1.198657
2.74,1.176324
2.744,1.235374
2.748,1.178626
2.752,1.213239
2.756,1.204214
2.76,1.212608
2.764,1.235297
2.768,1.213149
2.772,1.191688
2.776,1.226114
2.78,1.192692
2.784,1.210091
2.788,1.182649
2.792,1.18972
2.796,1.213471
2.8,1.222045
2.804,1.183055
2.808,1.229647
2.812,1.206088
2.816,1.251021
2.82,1.221513
2.824,1.209375
2.828,1.236829
2.832,1.22062
2.836,1.268121
2.84,1.246712
2.844,1.247788
2.848,1.266934
2.852,1.239431
2.856,1.23833
2.86,1.277013
2.864,1.251731
2.868,1.256746
2.872,1.300642
2.876,1.299706
2.88,1.269559
2.884,1.287814
2.888,1.287809
2.892,1.347219
2.896,1.335741
2.9,1.315248
2.904,1.341343
2.908,1.308958
2.912,1.328995
2.916,1.35101
2.92,1.364519
2.924,1.360177
2.928,1.373826
2.932,1.377254
2.936,1.379316
2.94,1.38364
2.944,1.388082
2.948,1.408356
2.952,1.419104
2.956,1.422082
2.96,1.401821
2.964,1.41274
2.968,1.448065
2.972,1.476927
2.976,1.457981
2.98,1.454167
2.984,1.474378
2.988,1.454666
2.992,1.511106
2.996,1.496193
3.0,1.486611
3.004,1.504203
3.008,1.504533
3.012,1.548831
3.016,1.526064
3.02,1.540707
3.024,1.556542
3.028,1.537692
3.032,1.563787
3.036,1.57277
3.04,1.543525
3.044,1.58694
3.048,1.588197
3.052,1.598882
3.056,1.604105
3.06,1.615621
3.064,1.644159
3.068,1.600723
3.072,1.624292
3.076,1.651206
3.08,1.654145
3.084,1.660275
3.088,1.712624
3.092,1.676201
3.096,1.692799
3.1,1.670194
3.104,1.662521
3.108,1.682021
3.112,1.708356
3.116,1.70794
3.12,1.713429
3.124,1.706508
3.128,1.708617
3.132,1.717657
3.136,1.740765
3.14,1.747969
3.144,1.715762
3.148,1.755717
3.152,1.731887
3.156,1.758557
3.16,1.749459
3.164,1.788574
3.168,1.752694
3.172,1.76826
3.176,1.780284
3.18,1.753969
3.184,1.773115
3.188,1.772191
3.192,1.770022
3.196,1.774103
3.2,1.807557
3.204,1.775586
3.208,1.800943
3.212,1.797781
3.216,1.765241
3.22,1.80507
3.224,1.767736
3.228,1.8097
3.232,1.78794
3.236,1.799007
3.24,1.773522
3.244,1.802234
3.248,1.818515
3.252,1.783837
3.256,1.787644
3.26,1.8085
3.264,1.808432
3.268,1.7494
3.272,1.837447
3.276,1.806577
3.28,1.808625
3.284,1.79031
3.288,1.754382
3.292,1.803109
3.296,1.776253
3.3,1.796196
3.304,1.778521
3.308,1.785059
3.312,1.762023
3.316,1.79186
3.32,1.747681
3.324,1.813064
3.328,1.809446
3.332,1.793709
3.336,1.782768
3.34,1.751607
3.344,1.77251
3.348,1.742978
3.352,1.7094
3.356,1.765951
3.36,1.75373
3.364,1.725649
3.368,1.69675
3.372,1.704369
3.376,1.674372
3.38,1.724266
3.384,1.667737
3.388,1.699853
3.392,1.671434
3.396,1.653845
3.4,1.681103
3.404,1.663505
3.408,1.680682
3.412,1.6322
3.416,1.635941
3.42,1.596773
3.424,1.594187
3.428,1.667099
3.432,1.665985
3.436,1.619267
3.44,1.593961
3.444,1.597424
3.448,1.613755
3.452,1.578825
3.456,1.586638
3.46,1.574352
3.464,1.555905
3.468,1.549389
3.472,1.558373
3.476,1.52553
3.48,1.546635
3.484,1.520677
3.488,1.525145
3.492,1.542753
3.496,1.504175
3.5,1.518396
3.504,1.45662
3.508,1.475519
3.512,1.477956
3.516,1.508358
3.52,1.423201
3.524,1.453008
3.528,1.476627
3.532,1.424387
3.536,1.428462
3.54,1.432028
3.544,1.421805
3.548,1.442203
3.552,1.412686
3.556,1.423163
3.56,1.382362
3.564,1.367777
3.568,1.371173
3.572,1.345683
3.576,1.371796
3.58,1.347756
3.584,1.335477
3.588,1.352421
3.592,1.313207
3.596,1.345229
3.6,1.314098
3.604,1.340803
3.608,1.303838
3.612,1.318521
3.616,1.303788
3.62,1.309514
3.624,1.291404
3.628,1.250639
3.632,1.298922
3.636,1.271971
3.64,1.284636
3.644,1.277918
3.648,1.244064
3.652,1.236802
3.656,1.263928
3.66,1.240637
3.664,1.261471
3.668,1.235381
3.672,1.255781
3.676,1.240314
3.68,1.234311
3.684,1.217947
3.688,1.227125
3.692,1.243558
3.696,1.216019
3.7,1.225307
3.704,1.213371
3.708,1.212878
3.712,1.242979
3.716,1.230854
3.72,1.206902
3.724,1.208283
3.728,1.188824
3.732,1.198457
3.736,1.207348
3.74,1.217604
3.744,1.215198
3.748,1.177839
3.752,1.219563
3.756,1.198438
3.76,1.180852
3.764,1.227888
3.768,1.231182
3.772,1.208137
3.776,1.21817
3.78,1.220663
3.784,1.234735
3.788,1.223072
3.792,1.183832
3.796,1.25264
3.8,1.235996
3.804,1.206912
3.808,1.199109
3.812,1.232573
3.816,1.219862
3.82,1.235152
3.824,1.246716
3.828,1.223984
3.832,1.216623
3.836,1.250458
3.84,1.236034
3.844,1.253743
3.848,1.228232
3.852,1.254486
3.856,1.278413
3.86,1.280965
3.864,1.257957
3.868,1.255381
3.872,1.284223
3.876,1.300426
3.88,1.302739
3.884,1.289953
3.888,1.31184
3.892,1.34174
3.896,1.321724
3.9,1.291001
3.904,1.333883
3.908,1.376961
3.912,1.3167
3.916,1.349508
3.92,1.350947
3.924,1.364044
3.928,1.37275
3.932,1.398487
3.936,1.384284
3.94,1.415108
3.944,1.394254
3.948,1.396714
3.952,1.397504
3.956,1.381773
3.96,1.430909
3.964,1.473799
3.968,1.449252
3.972,1.461228
3.976,1.446672
3.98,1.457513
3.984,1.489584
3.988,1.517576
3.992,1.514686
3.996,1.508566
4.0,1.500703
4.004,1.511733
4.008,1.500003
4.012,1.493635
4.016,1.507573
4.02,1.538596
4.024,1.539228
4.028,1.523118
4.032,1.559167
4.036,1.560913
4.04,1.55115
4.044,1.574482
4.048,1.582693
4.052,1.58395
4.056,1.621926
4.06,1.572379
4.064,1.577696
4.068,1.624378
4.072,1.633057
4.076,1.645958
4.08,1.633747
4.084,1.632728
4.088,1.657406
4.092,1.655087
4.096,1.701202
4.1,1.669851
4.104,1.681315
4.108,1.737816
4.112,1.690222
4.116,1.710927
4.12,1.71829
4.124,1.725423
4.128,1.721882
4.132,1.725131
4.136,1.728282
4.14,1.719634
4.144,1.742397
4.148,1.781043
4.152,1.769115
4.156,1.755257
4.16,1.770415
4.164,1.739874
4.168,1.755845
4.172,1.783644
4.176,1.797896
4.18,1.756031
4.184,1.764901
4.188,1.821151
4.192,1.782224
4.196,1.819364
4.2,1.789454
4.204,1.79248
4.208,1.783505
4.212,1.810341
4.216,1.820336
4.22,1.773986
4.224,1.788957
4.228,1.81544
4.232,1.795492
4.236,1.788972
4.24,1.819599
4.244,1.821856
4.248,1.790983
4.252,1.804224
4.256,1.775617
4.26,1.781498
4.264,1.801323
4.268,1.798712
4.272,1.777801
4.276,1.781686
4.28,1.773385
4.284,1.802282
4.288,1.752137
4.292,1.769383
4.296,1.750298
4.3,1.793697
4.304,1.746842
4.308,1.780933
4.312,1.810314
4.316,1.808041
4.32,1.73533
4.324,1.774121
4.328,1.744908
4.332,1.737192
4.336,1.754989
4.34,1.777864
4.344,1.761172
4.348,1.730599
4.352,1.754571
4.356,1.691012
4.36,1.716095
4.364,1.709798
4.368,1.72282
4.372,1.712036
4.376,1.707966
4.38,1.70187
4.384,1.700252
4.388,1.704919
4.392,1.691294
4.396,1.676692
4.4,1.684371
4.404,1.686703
4.408,1.652798
4.412,1.656364
4.416,1.674325
4.42,1.622471
4.424,1.673968
4.428,1.604352
4.432,1.617405
4.436,1.598408
4.44,1.654196
4.444,1.593326
4.448,1.586266
4.452,1.581697
4.456,1.583798
4.46,1.568038
4.464,1.564623
4.468,1.489329
4.472,1.55365
4.476,1.545424
4.48,1.558371
4.484,1.55629
4.488,1.518844
4.492,1.531398
4.496,1.485508
4.5,1.515347
4.504,1.481011
4.508,1.461233
4.512,1.47369
4.516,1.497901
4.52,1.46602
4.524,1.484862
4.528,1.432518
4.532,1.461044
4.536,1.419676
4.54,1.4299
4.544,1.422448
4.548,1.424117
4.552,1.408732
4.556,1.381823
4.56,1.407169
4.564,1.417221
4.568,1.364011
4.572,1.332161
4.576,1.372112
4.58,1.34885
4.584,1.346291
4.588,1.353571
4.592,1.326954
4.596,1.324442
4.6,1.321662
4.604,1.347016
4.608,1.312294
4.612,1.28117
4.616,1.276279
4.62,1.29742
4.624,1.266616
4.628,1.252661
4.632,1.291457
4.636,1.287415
4.64,1.261483
4.644,1.269987
4.648,1.263292
4.652,1.267147
4.656,1.262916
4.66,1.194586
4.664,1.237932
4.668,1.249303
4.672,1.227104
4.676,1.232572
4.68,1.243566
4.684,1.227046
4.688,1.252635
4.692,1.242241
4.696,1.214732
4.7,1.210722
4.704,1.155437
4.708,1.203855
4.712,1.181445
4.716,1.211244
4.72,1.208371
4.724,1.217911
4.728,1.230795
4.732,1.201391
4.736,1.246768
4.74,1.205241
4.744,1.174009
4.748,1.188782
4.752,1.192569
4.756,1.212056
4.76,1.181647
4.764,1.1952
4.768,1.198696
4.772,1.193899
4.776,1.220223
4.78,1.21814
4.784,1.230151
4.788,1.20189
4.792,1.234436
4.796,1.185164
4.8,1.186915
4.804,1.192827
4.808,1.219886
4.812,1.246524
4.816,1.213385
4.82,1.219018
4.824,1.227527
4.828,1.246769
4.832,1.229392
4.836,1.232074
4.84,1.219794
4.844,1.239387
4.848,1.278647
4.852,1.261348
4.856,1.249316
4.86,1.293569
4.864,1.26202
4.868,1.307145
4.872,1.311979
4.876,1.290325
4.88,1.264665
4.884,1.345986
4.888,1.313629
4.892,1.305215
4.896,1.336743
4.9,1.33771
4.904,1.356038
4.908,1.322835
4.912,1.348817
4.916,1.325196
4.92,1.368801
4.924,1.361667
4.928,1.374485
4.932,1.37276
4.936,1.377568
4.94,1.372198
4.944,1.412416
4.948,1.433511
4.952,1.399754
4.956,1.429185
4.96,1.434037
4.964,1.432881
4.968,1.409555
4.972,1.421461
4.976,1.439313
4.98,1.41962
4.984,1.498052
4.988,1.484756
4.992,1.484327
4.996,1.448656
5.0,1.463523
5.004,1.507492
5.008,1.554483
5.012,1.508625
5.016,1.547384
5.02,1.528002
5.024,1.546172
5.028,1.576801
5.032,1.552994
5.036,1.553479
5.04,1.602968
5.044,1.582797
5.048,1.610937
5.052,1.582578
5.056,1.631526
5.06,1.61591
5.064,1.626108
5.068,1.626945
5.072,1.621025
5.076,1.63784
5.08,1.635674
5.084,1.670278
5.088,1.653491
5.092,1.633988
5.096,1.636592
5.1,1.641801
5.104,1.694739
5.108,1.665277
5.112,1.700119
5.116,1.702535
5.12,1.70407
5.124,1.719563
5.128,1.719259
5.132,1.667059
5.136,1.719803
5.14,1.739656
5.144,1.768692
5.148,1.774199
5.152,1.717639
5.156,1.742184
5.16,1.721976
5.164,1.787656
5.168,1.781312
5.172,1.771699
5.176,1.771474
5.18,1.799061
5.184,1.798799
5.188,1.800684
5.192,1.789432
5.196,1.775913
5.2,1.800659
5.204,1.803877
5.208,1.785802
5.212,1.784465
5.216,1.815847
5.22,1.827968
5.224,1.781018
5.228,1.791871
5.232,1.805102
5.236,1.808572
5.24,1.788961
5.244,1.837457
5.248,1.808418
5.252,1.810604
5.256,1.834965
5.26,1.790427
5.264,1.797071
5.268,1.773017
5.272,1.793691
5.276,1.766227
5.28,1.809643
5.284,1.80158
5.288,1.785948
5.292,1.787606
5.296,1.802786
5.3,1.762601
5.304,1.786981
5.308,1.794289
5.312,1.741878
5.316,1.788271
5.32,1.737967
5.324,1.765801
5.328,1.74142
5.332,1.78968
5.336,1.734116
5.34,1.720295
5.344,1.751846
5.348,1.736628
5.352,1.710378
5.356,1.746403
5.36,1.691324
5.364,1.705551
5.368,1.70975
5.372,1.732137
5.376,1.736704
5.38,1.72742
5.384,1.696738
5.388,1.645571
5.392,1.696124
5.396,1.711791
5.4,1.701011
5.404,1.67944
5.408,1.640128
5.412,1.647046
5.416,1.689763
5.42,1.616192
5.424,1.614917
5.428,1.649986
5.432,1.615689
5.436,1.593777
5.44,1.640997
5.444,1.612614
5.448,1.588647
5.452,1.566197
5.456,1.622834
5.46,1.574118
5.464,1.595228
5.468,1.577786
5.472,1.542089
5.476,1.534809
5.48,1.566526
5.484,1.559359
5.488,1.48506
5.492,1.526069
5.496,1.505115
5.5,1.479334
5.504,1.497696
5.508,1.457935
5.512,1.468073
5.516,1.453922
5.52,1.452404
5.524,1.453503
5.528,1.427182
5.532,1.471551
5.536,1.442584
5.54,1.461284
5.544,1.414913
5.548,1.399912
5.552,1.438885
5.556,1.385046
5.56,1.385997
5.564,1.396989
5.568,1.350933
5.572,1.383091
5.576,1.373793
5.58,1.38086
5.584,1.366714
5.588,1.368447
5.592,1.333873
5.596,1.312566
5.6,1.365864
5.604,1.287087
5.608,1.283162
5.612,1.317186
5.616,1.332696
5.62,1.298427
5.624,1.309191
5.628,1.243991
5.632,1.268755
5.636,1.236246
5.64,1.284454
5.644,1.233169
5.648,1.233974
5.652,1.265379
5.656,1.272058
5.66,1.243522
5.664,1.254145
5.668,1.249701
5.672,1.231004
5.676,1.209953
5.68,1.23985
5.684,1.23769
5.688,1.240357
5.692,1.225943
5.696,1.193733
5.7,1.22849
5.704,1.212416
5.708,1.200731
5.712,1.202618
5.716,1.193014
5.72,1.223091
5.724,1.175632
5.728,1.182992
5.732,1.195341
5.736,1.233435
5.74,1.221678
5.744,1.167396
5.748,1.227051
5.752,1.227012
5.756,1.176733
5.76,1.150163
5.764,1.199715
5.768,1.224365
5.772,1.234687
5.776,1.186578
5.78,1.240353
5.784,1.162261
5.788,1.201149
5.792,1.202041
5.796,1.23549
5.8,1.240649
5.804,1.236187
5.808,1.19269
5.812,1.239729
5.816,1.235608
5.82,1.195127
5.824,1.190507
5.828,1.256072
5.832,1.235343
5.836,1.217038
5.84,1.242538
5.844,1.258102
5.848,1.253441
5.852,1.22849
5.856,1.301825
5.86,1.28893
5.864,1.267017
5.868,1.272844
5.872,1.291097
5.876,1.266613
5.88,1.301089
5.884,1.273582
5.888,1.304473
5.892,1.288321
5.896,1.295259
5.9,1.356579
5.904,1.331004
5.908,1.34023
5.912,1.30222
5.916,1.336973
5.92,1.364698
5.924,1.366009
5.928,1.325785
5.932,1.37983
5.936,1.389919
5.94,1.415238
5.944,1.383503
5.948,1.358876
5.952,1.390952
5.956,1.396173
5.96,1.440127
5.964,1.378384
5.968,1.43112
5.972,1.476009
5.976,1.455077
5.98,1.480326
5.984,1.437056
5.988,1.445362
5.992,1.513672
5.996,1.494485
6.0,1.502065
6.004,1.485176
6.008,1.517089
6.012,1.499679
6.016,1.553846
6.02,1.592157
6.024,1.554746
6.028,1.539808
6.032,1.50924
6.036,1.533592
6.04,1.605704
6.044,1.561302
6.048,1.581696
6.052,1.60939
6.056,1.633039
6.06,1.606446
6.064,1.609319
6.068,1.625745
6.072,1.618582
6.076,1.626398
6.08,1.652764
6.084,1.654793
6.088,1.700184
6.092,1.672695
6.096,1.693204
6.1,1.65491
6.104,1.692882
6.108,1.673848
6.112,1.702026
6.116,1.713574
6.12,1.706362
6.124,1.758942
6.128,1.744652
6.132,1.744799
6.136,1.741561
6.14,1.766421
6.144,1.707147
6.148,1.767876
6.152,1.725077
6.156,1.737892
6.16,1.764526
6.164,1.781922
6.168,1.737984
6.172,1.754436
6.176,1.770103
6.18,1.767721
6.184,1.791653
6.188,1.846242
6.192,1.788685
6.196,1.768193
6.2,1.759387
6.204,1.781051
6.208,1.770809
6.212,1.800841
6.216,1.802221
6.22,1.785423
6.224,1.835705
6.228,1.782429
6.232,1.795695
6.236,1.811623
6.24,1.817249
6.244,1.825338
6.248,1.808546
6.252,1.820995
6.256,1.786485
6.26,1.81777
6.264,1.816935
6.268,1.828341
6.272,1.76377
6.276,1.777862
6.28,1.811149
6.284,1.740153
6.288,1.80133
6.292,1.810811
6.296,1.776029
6.3,1.776713
6.304,1.761414
6.308,1.769868
6.312,1.767672
6.316,1.760916
6.32,1.756695
6.324,1.762732
6.328,1.759025
6.332,1.798538
6.336,1.749374
6.34,1.760181
6.344,1.737641
6.348,1.73311
6.352,1.706383
6.356,1.704459
6.36,1.707014
6.364,1.729949
6.368,1.742777
6.372,1.680359
6.376,1.699813
6.38,1.678026
6.384,1.694518
6.388,1.715632
6.392,1.67937
6.396,1.681429
6.4,1.70544
6.404,1.679339
6.408,1.648716
6.412,1.660731
6.416,1.634536
6.42,1.652936
6.424,1.648181
6.428,1.603792
6.432,1.627816
6.436,1.615061
6.44,1.621331
6.444,1.62002
6.448,1.605832
6.452,1.583049
6.456,1.600552
6.46,1.557146
6.464,1.540871
6.468,1.496007
6.472,1.551104
6.476,1.528637
6.48,1.545555
6.484,1.490684
6.488,1.509654
6.492,1.524479
6.496,1.486942
6.5,1.508185
6.504,1.481321
6.508,1.484271
6.512,1.489305
6.516,1.488947
6.52,1.46425
6.524,1.438652
6.528,1.438332
6.532,1.452826
6.536,1.412294
6.54,1.421832
6.544,1.410397
6.548,1.40882
6.552,1.383531
6.556,1.359568
6.56,1.399977
6.564,1.401871
6.568,1.339844
6.572,1.376244
6.576,1.38379
6.58,1.367392
6.584,1.34058
6.588,1.323578
6.592,1.337701
6.596,1.334775
6.6,1.325581
6.604,1.314018
6.608,1.29004
6.612,1.314337
6.616,1.309614
6.62,1.298652
6.624,1.291425
6.628,1.317492
6.632,1.266258
6.636,1.299353
6.64,1.254166
6.644,1.286292
6.648,1.284197
6.652,1.249237
6.656,1.28404
6.66,1.256082
6.664,1.225197
6.668,1.231462
6.672,1.257968
6.676,1.250309
6.68,1.207391
6.684,1.222643
6.688,1.226547
6.692,1.209549
6.696,1.264259
6.7,1.219356
6.704,1.211207
6.708,1.234203
6.712,1.201206
6.716,1.226968
6.72,1.171959
6.724,1.194921
6.728,1.223843
6.732,1.233321
6.736,1.185694
6.74,1.182796
6.744,1.211562
6.748,1.187563
6.752,1.194652
6.756,1.217741
6.76,1.18971
6.764,1.161851
6.768,1.175895
6.772,1.203061
6.776,1.166726
6.78,1.199371
6.784,1.178978
6.788,1.241309
6.792,1.253688
6.796,1.19128
6.8,1.219818
6.804,1.197895
6.808,1.213515
6.812,1.258546
6.816,1.216094
6.82,1.222831
6.824,1.212997
6.828,1.258236
6.832,1.17368
6.836,1.233886
6.84,1.245784
6.844,1.2376
6.848,1.272369
6.852,1.28357
6.856,1.235873
6.86,1.310716
6.864,1.245259
6.868,1.304519
6.872,1.286904
6.876,1.279131
6.88,1.286449
6.884,1.299526
6.888,1.310052
6.892,1.29329
6.896,1.312942
6.9,1.308251
6.904,1.305518
6.908,1.319735
6.912,1.319448
6.916,1.34051
6.92,1.364123
6.924,1.36454
6.928,1.408352
6.932,1.331478
6.936,1.391975
6.94,1.389691
6.944,1.412921
6.948,1.418046
6.952,1.407588
6.956,1.421567
6.96,1.410512
6.964,1.444992
6.968,1.402509
6.972,1.46303
6.976,1.454469
6.98,1.452659
6.984,1.465241
6.988,1.474218
6.992,1.510873
6.996,1.557131
7.0,1.524397
7.004,1.496233
7.008,1.527669
7.012,1.536065
7.016,1.511605
7.02,1.512384
7.024,1.543802
7.028,1.568661
7.032,1.527677
7.036,1.552863
7.04,1.58606
7.044,1.58272
7.048,1.617438
7.052,1.568056
7.056,1.650436
7.06,1.579678
7.064,1.576829
7.068,1.623134
7.072,1.608446
7.076,1.637099
7.08,1.643052
7.084,1.647171
7.088,1.640704
7.092,1.672571
7.096,1.663834
7.1,1.698409
7.104,1.678772
7.108,1.669014
7.112,1.660363
7.116,1.696361
7.12,1.67998
7.124,1.683796
7.128,1.726642
7.132,1.685701
7.136,1.754519
7.14,1.734348
7.144,1.73501
7.148,1.719775
7.152,1.760189
7.156,1.749121
7.16,1.739576
7.164,1.761254
7.168,1.727399
7.172,1.731981
7.176,1.745749
7.18,1.778439
7.184,1.774507
7.188,1.798503
7.192,1.761899
7.196,1.794391
7.2,1.78304
7.204,1.768696
7.208,1.797321
7.212,1.790169
7.216,1.780598
7.22,1.795526
7.224,1.793415
7.228,1.794065
7.232,1.789832
7.236,1.772741
7.24,1.800903
7.244,1.783733
7.248,1.77957
7.252,1.795162
7.256,1.814467
7.26,1.80312
7.264,1.788217
7.268,1.786656
7.272,1.809855
7.276,1.748071
7.28,1.810633
7.284,1.7557
7.288,1.763181
7.292,1.779329
7.296,1.830959
7.3,1.818865
7.304,1.797027
7.308,1.78743
7.312,1.740278
7.316,1.777708
7.32,1.760464
7.324,1.751819
7.328,1.767783
7.332,1.751633
7.336,1.774644
7.34,1.714579
7.344,1.750679
7.348,1.72732
7.352,1.732277
7.356,1.741979
7.36,1.708808
7.364,1.72956
7.368,1.717007
7.372,1.702881
7.376,1.701384
7.38,1.702273
7.384,1.684447
7.388,1.694259
7.392,1.682744
7.396,1.670153
7.4,1.708132
7.404,1.678485
7.408,1.656264
7.412,1.66047
7.416,1.630551
7.42,1.635791
7.424,1.631472
7.428,1.606199
7.432,1.63206
7.436,1.6073
7.44,1.603328
7.444,1.592018
7.448,1.655465
7.452,1.57586
7.456,1.540512
7.46,1.542608
7.464,1.582467
7.468,1.586642
7.472,1.538871
7.476,1.570647
7.48,1.552432
7.484,1.526319
7.488,1.517389
7.492,1.518691
7.496,1.525088
7.5,1.507946
7.504,1.478925
7.508,1.481443
7.512,1.517027
7.516,1.474916
7.52,1.479787
7.524,1.46573
7.528,1.45296
7.532,1.442261
7.536,1.450667
7.54,1.439766
7.544,1.423392
7.548,1.397012
7.552,1.411428
7.556,1.395267
7.56,1.383398
7.564,1.436163
7.568,1.344906
7.572,1.388036
7.576,1.344873
7.58,1.358098
7.584,1.400285
7.588,1.3232
7.592,1.321604
7.596,1.329469
7.6,1.30672
7.604,1.335302
7.608,1.301002
7.612,1.318963
7.616,1.273613
7.62,1.258499
7.624,1.284625
7.628,1.252537
7.632,1.309111
7.636,1.243129
7.64,1.248092
7.644,1.272386
7.648,1.247803
7.652,1.22473
7.656,1.291621
7.66,1.226669
7.664,1.238817
7.668,1.234761
7.672,1.249519
7.676,1.241095
7.68,1.212016
7.684,1.218911
7.688,1.217938
7.692,1.234681
7.696,1.193736
7.7,1.255045
7.704,1.19726
7.708,1.210211
7.712,1.185311
7.716,1.180856
7.72,1.187825
7.724,1.184584
7.728,1.194576
7.732,1.182337
7.736,1.215071
7.74,1.184932
7.744,1.182337
7.748,1.192164
7.752,1.21988
7.756,1.204511
7.76,1.198598
7.764,1.172499
7.768,1.179062
7.772,1.177293
7.776,1.230131
7.78,1.215925
7.784,1.189587
7.788,1.197223
7.792,1.19388
7.796,1.194726
7.8,1.223889
7.804,1.211352
7.808,1.261325
7.812,1.247484
7.816,1.251617
7.82,1.241979
7.824,1.223394
7.828,1.247268
7.832,1.231968
7.836,1.275348
7.84,1.254787
7.844,1.256068
7.848,1.25764
7.852,1.294335
7.856,1.235438
7.86,1.305612
7.864,1.270002
7.868,1.250623
7.872,1.268863
7.876,1.256189
7.88,1.307709
7.884,1.279431
7.888,1.309257
7.892,1.334377
7.896,1.304181
7.9,1.318302
7.904,1.303752
7.908,1.328315
7.912,1.393928
7.916,1.364472
7.92,1.350179
7.924,1.349892
7.928,1.368013
7.932,1.378288
7.936,1.374207
7.94,1.400164
7.944,1.377538
7.948,1.384549
7.952,1.418291
7.956,1.394742
7.96,1.439973
7.964,1.432433
7.968,1.403529
7.972,1.449683
7.976,1.421229
7.98,1.476267
7.984,1.464917
7.988,1.514424
7.992,1.506353
7.996,1.471247
8.0,1.459585
8.004,1.492437
8.008,1.490648
8.012,1.559113
8.016,1.529902
8.02,1.556268
8.024,1.539367
8.028,1.548914
8.032,1.55926
8.036,1.589412
8.04,1.580839
8.044,1.560739
8.048,1.621563
8.052,1.590427
8.056,1.594282
8.06,1.553847
8.064,1.6301
8.068,1.626333
8.072,1.633133
8.076,1.629817
8.08,1.633022
8.084,1.643695
8.088,1.666816
8.092,1.676701
8.096,1.66556
8.1,1.695314
8.104,1.6808
8.108,1.678223
8.112,1.698085
8.116,1.672616
8.12,1.710018
8.124,1.679951
8.128,1.695538
8.132,1.68088
8.136,1.722773
8.14,1.763347
8.144,1.733545
8.148,1.753342
8.152,1.791948
8.156,1.75726
8.16,1.737994
8.164,1.744707
8.168,1.761068
8.172,1.752029
8.176,1.756991
8.18,1.791153
8.184,1.795095
8.188,1.744585
8.192,1.763935
8.196,1.773617
8.2,1.797299
8.204,1.810418
8.208,1.843654
8.212,1.782176
8.216,1.784866
8.22,1.806458
8.224,1.782361
8.228,1.794319
8.232,1.789783
8.236,1.746407
8.24,1.801873
8.244,1.79614
8.248,1.825401
8.252,1.800086
8.256,1.774692
8.26,1.794246
8.264,1.757018
8.268,1.773865
8.272,1.809849
8.276,1.791059
8.28,1.813136
8.284,1.753843
8.288,1.78664
8.292,1.780104
8.296,1.806674
8.3,1.798772
8.304,1.795742
8.308,1.811127
8.312,1.770161
8.316,1.801274
8.32,1.750564
8.324,1.746535
8.328,1.779742
8.332,1.73096
8.336,1.768713
8.34,1.755325
8.344,1.770616
8.348,1.743713
8.352,1.741591
8.356,1.746072
8.36,1.717901
8.364,1.712151
8.368,1.730743
8.372,1.715507
8.376,1.702649
8.38,1.703708
8.384,1.731695
8.388,1.685256
8.392,1.678867
8.396,1.64823
8.4,1.675489
8.404,1.683318
8.408,1.680642
8.412,1.659717
8.416,1.670204
8.42,1.659151
8.424,1.660133
8.428,1.650821
8.432,1.655712
8.436,1.614018
8.44,1.583896
8.444,1.616667
8.448,1.611894
8.452,1.620512
8.456,1.607511
8.46,1.613516
8.464,1.579678
8.468,1.564489
8.472,1.524807
8.476,1.55123
8.48,1.52655
8.484,1.534339
8.488,1.523688
8.492,1.524508
8.496,1.505592
8.5,1.5187
8.504,1.437998
8.508,1.488727
8.512,1.501452
8.516,1.507292
8.52,1.477039
8.524,1.48863
8.528,1.450872
8.532,1.440144
8.536,1.443307
8.54,1.425329
8.544,1.402467
8.548,1.400583
8.552,1.381474
8.556,1.407175
8.56,1.38979
8.564,1.375382
8.568,1.364354
8.572,1.378966
8.576,1.377735
8.58,1.332864
8.584,1.323159
8.588,1.361538
8.592,1.308579
8.596,1.340769
8.6,1.356003
8.604,1.350006
8.608,1.32645
8.612,1.320059
8.616,1.345235
8.62,1.247948
8.624,1.279918
8.628,1.300877
8.632,1.272
8.636,1.29852
8.64,1.268059
8.644,1.266748
8.648,1.254036
8.652,1.244648
8.656,1.239879
8.66,1.252125
8.664,1.227251
8.668,1.258009
8.672,1.248377
8.676,1.253836
8.68,1.205973
8.684,1.191438
8.688,1.222393
8.692,1.277677
8.696,1.242427
8.7,1.203594
8.704,1.220934
8.708,1.224937
8.712,1.181143
8.716,1.234212
8.72,1.201965
8.724,1.202181
8.728,1.203337
8.732,1.224807
8.736,1.186056
8.74,1.166453
8.744,1.206672
8.748,1.159151
8.752,1.194002
8.756,1.223951
8.76,1.212174
8.764,1.222007
8.768,1.214324
8.772,1.251068
8.776,1.192229
8.78,1.213276
8.784,1.198057
8.788,1.227647
8.792,1.209154
8.796,1.24682
8.8,1.204067
8.804,1.245245
8.808,1.231564
8.812,1.221828
8.816,1.236276
8.82,1.233777
8.824,1.238967
8.828,1.231175
8.832,1.224913
8.836,1.236041
8.84,1.213039
8.844,1.26766
8.848,1.230395
8.852,1.255177
8.856,1.277074
8.86,1.285634
8.864,1.238232
8.868,1.276909
8.872,1.293102
8.876,1.290245
8.88,1.321517
8.884,1.28376
8.888,1.264902
8.892,1.327899
8.896,1.306879
8.9,1.288494
8.904,1.326649
8.908,1.360693
8.912,1.317183
8.916,1.395633
8.92,1.338716
8.924,1.363866
8.928,1.344483
8.932,1.37652
8.936,1.379913
8.94,1.359773
8.944,1.453124
8.948,1.39381
8.952,1.400998
8.956,1.437495
8.96,1.461678
8.964,1.455248
8.968,1.416063
8.972,1.451771
8.976,1.417305
8.98,1.480434
8.984,1.437188
8.988,1.461338
8.992,1.484863
8.996,1.501361
9.0,1.494781
9.004,1.537921
9.008,1.529538
9.012,1.535493
9.016,1.50552
9.02,1.571587
9.024,1.529006
9.028,1.587258
9.032,1.600357
9.036,1.577534
9.04,1.595247
9.044,1.520227
9.048,1.585212
9.052,1.618326
9.056,1.621883
9.06,1.586043
9.064,1.611538
9.068,1.573585
9.072,1.639395
9.076,1.600207
9.08,1.667136
9.084,1.674741
9.088,1.648065
9.092,1.674344
9.096,1.665839
9.1,1.681174
9.104,1.659434
9.108,1.700757
9.112,1.661293
9.116,1.663205
9.12,1.702926
9.124,1.70657
9.128,1.721539
9.132,1.708264
9.136,1.763989
9.14,1.734366
9.144,1.740544
9.148,1.744415
9.152,1.76496
9.156,1.760699
9.16,1.762139
9.164,1.771978
9.168,1.724563
9.172,1.72895
9.176,1.766631
9.18,1.767495
9.184,1.786169
9.188,1.777924
9.192,1.791936
9.196,1.757985
9.2,1.785102
9.204,1.760735
9.208,1.797352
9.212,1.753924
9.216,1.800147
9.22,1.765306
9.224,1.788335
9.228,1.815037
9.232,1.802631
9.236,1.765927
9.24,1.78596
9.244,1.769759
9.248,1.766081
9.252,1.80233
9.256,1.810993
9.26,1.80822
9.264,1.810893
9.268,1.797845
9.272,1.791671
9.276,1.774544
9.28,1.785885
9.284,1.766753
9.288,1.774586
9.292,1.791393
9.296,1.7852
9.3,1.846612
9.304,1.755981
9.308,1.777797
9.312,1.749049
9.316,1.766817
9.32,1.764506
9.324,1.78505
9.328,1.755694
9.332,1.757229
9.336,1.748652
9.34,1.725277
9.344,1.736137
9.348,1.737263
9.352,1.741947
9.356,1.747065
9.36,1.726462
9.364,1.721232
9.368,1.686838
9.372,1.726887
9.376,1.696877
9.38,1.720307
9.384,1.726132
9.388,1.690358
9.392,1.667841
9.396,1.682045
9.4,1.68331
9.404,1.66387
9.408,1.652638
9.412,1.668823
9.416,1.661039
9.42,1.6376
9.424,1.604793
9.428,1.640262
9.432,1.608966
9.436,1.621699
9.44,1.613461
9.444,1.565614
9.448,1.597905
9.452,1.599403
9.456,1.594629
9.46,1.576954
9.464,1.527738
9.468,1.585455
9.472,1.560727
9.476,1.521001
9.48,1.521845
9.484,1.534733
9.488,1.536194
9.492,1.505314
9.496,1.52405
9.5,1.464145
9.504,1.471612
9.508,1.443639
9.512,1.459454
9.516,1.500053
9.52,1.503556
9.524,1.459624
9.528,1.434724
9.532,1.435654
9.536,1.442186
9.54,1.394133
9.544,1.406664
9.548,1.439585
9.552,1.382803
9.556,1.381627
9.56,1.389827
9.564,1.388251
9.568,1.363187
9.572,1.370405
9.576,1.374285
9.58,1.394703
9.584,1.346388
9.588,1.341622
9.592,1.366631
9.596,1.318836
9.6,1.297177
9.604,1.322626
9.608,1.333216
9.612,1.313104
9.616,1.298256
9.62,1.265668
9.624,1.288038
9.628,1.30857
9.632,1.254064
9.636,1.26883
9.64,1.261096
9.644,1.250159
9.648,1.264488
9.652,1.263964
9.656,1.259478
9.66,1.227165
9.664,1.209822
9.668,1.244193
9.672,1.225194
9.676,1.268614
9.68,1.266242
9.684,1.265241
9.688,1.203675
9.692,1.231089
9.696,1.234522
9.7,1.22985
9.704,1.205356
9.708,1.235969
9.712,1.20852
9.716,1.209382
9.72,1.174557
9.724,1.21689
9.728,1.197653
9.732,1.211212
9.736,1.205862
9.74,1.204211
9.744,1.199299
9.748,1.215756
9.752,1.196046
9.756,1.171109
9.76,1.211971
9.764,1.18498
9.768,1.175431
9.772,1.182417
9.776,1.209661
9.78,1.203383
9.784,1.164166
9.788,1.200837
9.792,1.23377
9.796,1.203418
9.8,1.211374
9.804,1.237963
9.808,1.235611
9.812,1.242912
9.816,1.169977
9.82,1.263222
9.824,1.244576
9.828,1.284542
9.832,1.223298
9.836,1.207473
9.84,1.246846
9.844,1.245314
9.848,1.268172
9.852,1.281028
9.856,1.262368
9.86,1.264032
9.864,1.284179
9.868,1.273619
9.872,1.277108
9.876,1.309948
9.88,1.319831
9.884,1.321876
9.888,1.302519
9.892,1.268897
9.896,1.314657
9.9,1.308505
9.904,1.327225
9.908,1.32266
9.912,1.342033
9.916,1.328128
9.92,1.32986
9.924,1.38658
9.928,1.349472
9.932,1.375694
9.936,1.401678
9.94,1.407849
9.944,1.412504
9.948,1.409774
9.952,1.425368
9.956,1.445576
9.96,1.433893
9.964,1.395975
9.968,1.429516
9.972,1.46142
9.976,1.44239
9.98,1.494802
9.984,1.468628
9.988,1.479107
9.992,1.507422
9.996,1.488804
10.0,1.503526
10.004,1.525521
10.008,1.485628
10.012,1.516892
10.016,1.546692
10.02,1.538912
10.024,1.574414
10.028,1.520988
10.032,1.526113
10.036,1.582675
10.04,1.591923
10.044,1.578021
10.048,1.59712
10.052,1.611187
10.056,1.587116
10.06,1.5963
10.064,1.621207
10.068,1.642394
10.072,1.607816
10.076,1.633915
10.08,1.639641
10.084,1.659446
10.088,1.657378
10.092,1.653001
10.096,1.695152
10.1,1.66555
10.104,1.676537
10.108,1.656477
10.112,1.679844
10.116,1.710125
10.12,1.711776
10.124,1.722785
10.128,1.727112
10.132,1.763008
10.136,1.711318
10.14,1.698765
10.144,1.714875
10.148,1.726397
10.152,1.725415
10.156,1.751052
10.16,1.778351
10.164,1.788051
10.168,1.771141
10.172,1.807513
10.176,1.761025
10.18,1.738798
10.184,1.795636
10.188,1.740751
10.192,1.765199
10.196,1.793299
10.2,1.783269
10.204,1.783737
10.208,1.765999
10.212,1.791273
10.216,1.813254
10.22,1.795086
10.224,1.779401
10.228,1.772188
10.232,1.781892
10.236,1.806687
10.24,1.80628
10.244,1.783777
10.248,1.755761
10.252,1.808377
10.256,1.781833
10.26,1.813189
10.264,1.783718
10.268,1.778325
10.272,1.800202
10.276,1.84316
10.28,1.809667
10.284,1.795905
10.288,1.798667
10.292,1.754592
10.296,1.76511
10.3,1.735098
10.304,1.817495
10.308,1.810846
10.312,1.78538
10.316,1.777275
10.32,1.740416
10.324,1.763766
10.328,1.800535
10.332,1.763683
10.336,1.745965
10.34,1.718137
10.344,1.776785
10.348,1.7435
10.352,1.705335
10.356,1.717401
10.36,1.705603
10.364,1.723641
10.368,1.725401
10.372,1.706028
10.376,1.726336
10.38,1.70694
10.384,1.72105
10.388,1.686973
10.392,1.749214
10.396,1.671089
10.4,1.658269
10.404,1.649655
10.408,1.659699
10.412,1.623162
10.416,1.656978
10.42,1.60642
10.424,1.641107
10.428,1.60411
10.432,1.616687
10.436,1.629503
10.44,1.656518
10.444,1.581833
10.448,1.593277
10.452,1.574637
10.456,1.564488
10.46,1.560307
10.464,1.583763
10.468,1.550152
10.472,1.597493
10.476,1.553387
10.48,1.5174
10.484,1.522774
10.488,1.506561
10.492,1.531075
10.496,1.474763
10.5,1.473181
10.504,1.48063
10.508,1.498586
10.512,1.502063
10.516,1.497502
10.52,1.472996
10.524,1.453275
10.528,1.463386
10.532,1.417197
10.536,1.395826
10.54,1.434126
10.544,1.398001
10.548,1.409581
10.552,1.406109
10.556,1.40157
10.56,1.408318
10.564,1.399229
10.568,1.379587
10.572,1.360025
10.576,1.364281
10.58,1.34355
10.584,1.344984
10.588,1.394811
10.592,1.339725
10.596,1.338824
10.6,1.309555
10.604,1.338022
10.608,1.326898
10.612,1.32123
10.616,1.304494
10.62,1.31532
10.624,1.314639
10.628,1.289569
10.632,1.276454
10.636,1.291616
10.64,1.250764
10.644,1.249754
10.648,1.258464
10.652,1.220271
10.656,1.267373
10.66,1.227443
10.664,1.233312
10.668,1.234679
10.672,1.236098
10.676,1.224975
10.68,1.227204
10.684,1.224235
10.688,1.213536
10.692,1.204237
10.696,1.238732
10.7,1.172595
10.704,1.208329
10.708,1.201008
10.712,1.216886
10.716,1.177734
10.72,1.195318
10.724,1.201947
10.728,1.224263
10.732,1.20856
10.736,1.17749
10.74,1.190842
10.744,1.217934
10.748,1.176008
10.752,1.198451
10.756,1.200031
10.76,1.192876
10.764,1.255075
10.768,1.193662
10.772,1.211857
10.776,1.188668
10.78,1.215869
10.784,1.224235
10.788,1.196751
10.792,1.209291
10.796,1.194538
10.8,1.191795
10.804,1.237839
10.808,1.208621
10.812,1.174205
10.816,1.260735
10.82,1.21251
10.824,1.22692
10.828,1.268131
10.832,1.23611
10.836,1.239475
10.84,1.222138
10.844,1.218125
10.848,1.25177
10.852,1.266786
10.856,1.270224
10.86,1.259221
10.864,1.27413
10.868,1.242002
10.872,1.293111
10.876,1.292433
10.88,1.334109
10.884,1.300346
10.888,1.28703
10.892,1.310678
10.896,1.311065
10.9,1.332359
10.904,1.330357
10.908,1.310883
10.912,1.309733
10.916,1.354171
10.92,1.383136
10.924,1.363713
10.928,1.385131
10.932,1.395944
10.936,1.387924
10.94,1.373273
10.944,1.400513
10.948,1.427858
10.952,1.421485
10.956,1.433079
10.96,1.416142
10.964,1.428672
10.968,1.437712
10.972,1.446466
10.976,1.478291
10.98,1.415457
10.984,1.470502
10.988,1.475812
10.992,1.457497
10.996,1.505896
11.0,1.48551
11.004,1.500398
11.008,1.552049
11.012,1.542798
11.016,1.541598
11.02,1.545216
11.024,1.541774
11.028,1.592494
11.032,1.575956
11.036,1.55229
11.04,1.546605
11.044,1.593222
11.048,1.587995
11.052,1.567704
11.056,1.611965
11.06,1.605057
11.064,1.628025
11.068,1.633147
11.072,1.618969
11.076,1.650531
11.08,1.634568
11.084,1.642429
11.088,1.646907
11.092,1.686538
11.096,1.664569
11.1,1.703784
11.104,1.718049
11.108,1.673533
11.112,1.635697
11.116,1.720694
11.12,1.698525
11.124,1.693471
11.128,1.704318
11.132,1.712958
11.136,1.752219
11.14,1.734352
11.144,1.761559
11.148,1.750354
11.152,1.738717
11.156,1.741372
11.16,1.764531
11.164,1.773667
11.168,1.780991
11.172,1.759457
11.176,1.771657
11.18,1.783129
11.184,1.766893
11.188,1.754824
11.192,1.764173
11.196,1.778076
11.2,1.798561
11.204,1.812736
11.208,1.762494
11.212,1.779543
11.216,1.786023
11.22,1.810581
11.224,1.785444
11.228,1.788544
11.232,1.769844
11.236,1.808508
11.24,1.79618
11.244,1.786706
11.248,1.794786
11.252,1.822516
11.256,1.779689
11.26,1.782575
11.264,1.823885
11.268,1.799599
11.272,1.810534
11.276,1.804041
11.28,1.793979
11.284,1.786214
11.288,1.808121
11.292,1.812861
11.296,1.80924
11.3,1.761608
11.304,1.808995
11.308,1.77314
11.312,1.762423
11.316,1.771186
11.32,1.788071
11.324,1.778962
11.328,1.75958
11.332,1.777808
11.336,1.760055
11.34,1.741839
11.344,1.735018
11.348,1.753106
11.352,1.73882
11.356,1.708376
11.36,1.748097
11.364,1.71667
11.368,1.753096
11.372,1.688033
11.376,1.707181
11.38,1.691365
11.384,1.680295
11.388,1.684381
11.392,1.723719
11.396,1.685246
11.4,1.660501
11.404,1.633608
11.408,1.629491
11.412,1.646823
11.416,1.638413
11.42,1.640045
11.424,1.59243
11.428,1.629301
11.432,1.644867
11.436,1.649869
11.44,1.572548
11.444,1.587365
11.448,1.579198
11.452,1.592027
11.456,1.55749
11.46,1.608252
11.464,1.568152
11.468,1.55745
11.472,1.584361
11.476,1.544747
11.48,1.545606
11.484,1.515093
11.488,1.495188
11.492,1.502866
11.496,1.551279
11.5,1.51266
11.504,1.497952
11.508,1.465399
11.512,1.495627
11.516,1.442738
11.52,1.431059
11.524,1.443755
11.528,1.486583
11.532,1.478045
11.536,1.423694
11.54,1.411909
11.544,1.385307
11.548,1.412448
11.552,1.406957
11.556,1.412398
11.56,1.407777
11.564,1.378639
11.568,1.386808
11.572,1.354852
11.576,1.372867
11.58,1.345329
11.584,1.358102
11.588,1.350018
11.592,1.337458
11.596,1.34571
11.6,1.292256
11.604,1.296323
11.608,1.306291
11.612,1.277018
11.616,1.292059
11.62,1.287143
11.624,1.315399
11.628,1.286758
11.632,1.299335
11.636,1.279758
11.64,1.258133
11.644,1.266788
11.648,1.274118
11.652,1.278966
11.656,1.248175
11.66,1.213751
11.664,1.208386
11.668,1.232417
11.672,1.188555
11.676,1.26775
11.68,1.240491
11.684,1.212714
11.688,1.200284
11.692,1.240264
11.696,1.19483
11.7,1.194319
11.704,1.197125
11.708,1.212667
11.712,1.220926
11.716,1.230673
11.72,1.226213
11.724,1.20401
11.728,1.223272
11.732,1.188497
11.736,1.164743
11.74,1.187169
11.744,1.184088
11.748,1.187384
11.752,1.180836
11.756,1.190991
11.76,1.212992
11.764,1.235465
11.768,1.16741
11.772,1.177107
11.776,1.188165
11.78,1.220629
11.784,1.202721
11.788,1.194028
11.792,1.22472
11.796,1.231571
11.8,1.214308
11.804,1.200778
11.808,1.225107
11.812,1.217811
11.816,1.220607
11.82,1.218304
11.824,1.250347
11.828,1.24031
11.832,1.259659
11.836,1.269469
11.84,1.255881
11.844,1.240692
11.848,1.275905
11.852,1.268843
11.856,1.316181
11.86,1.275048
11.864,1.287678
11.868,1.284555
11.872,1.281925
11.876,1.284029
11.88,1.300521
11.884,1.31062
11.888,1.328971
11.892,1.31787
11.896,1.308363
11.9,1.317127
11.904,1.303361
11.908,1.369306
11.912,1.331624
11.916,1.368262
11.92,1.361005
11.924,1.368201
11.928,1.366516
11.932,1.359931
11.936,1.363217
11.94,1.424132
11.944,1.398886
11.948,1.426222
11.952,1.438586
11.956,1.409897
11.96,1.433863
11.964,1.433619
11.968,1.416943
11.972,1.443783
11.976,1.466682
11.98,1.452419
11.984,1.463395
11.988,1.473935
11.992,1.527157
11.996,1.45578
12.0,1.510033
12.004,1.502472
12.008,1.50226
12.012,1.517041
12.016,1.543456
12.02,1.55209
12.024,1.548788
12.028,1.574362
12.032,1.58529
12.036,1.583609
12.04,1.563683
12.044,1.591774
12.048,1.599096
12.052,1.57997
12.056,1.572004
12.06,1.569982
12.064,1.618809
12.068,1.630273
12.072,1.607499
12.076,1.658795
12.08,1.64757
12.084,1.678076
12.088,1.664963
12.092,1.642592
12.096,1.679346
12.1,1.689738
12.104,1.671427
12.108,1.659466
12.112,1.696123
12.116,1.679787
12.12,1.727782
12.124,1.702651
12.128,1.750585
12.132,1.678771
12.136,1.728971
12.14,1.759742
12.144,1.71808
12.148,1.737286
12.152,1.736841
12.156,1.735503
12.16,1.758191
12.164,1.73135
12.168,1.758836
12.172,1.775007
12.176,1.763851
12.18,1.751444
12.184,1.795176
12.188,1.792128
12.192,1.759475
12.196,1.757015
12.2,1.766278
12.204,1.798462
12.208,1.795126
12.212,1.807291
12.216,1.786657
12.22,1.776191
12.224,1.814383
12.228,1.786069
12.232,1.801814
12.236,1.767842
12.24,1.788012
12.244,1.819975
12.248,1.785651
12.252,1.816266
12.256,1.753166
12.26,1.78822
12.264,1.795413
12.268,1.832934
12.272,1.773757
12.276,1.809426
12.28,1.815825
12.284,1.778751
12.288,1.784019
12.292,1.792447
12.296,1.757927
12.3,1.776215
12.304,1.808419
12.308,1.790752
12.312,1.774388
12.316,1.776834
12.32,1.783066
12.324,1.783601
12.328,1.753559
12.332,1.79175
12.336,1.783585
12.34,1.766844
12.344,1.73232
12.348,1.724497
12.352,1.733938
12.356,1.737102
12.36,1.695784
12.364,1.736169
12.368,1.747003
12.372,1.727622
12.376,1.697274
12.38,1.689476
12.384,1.705801
12.388,1.691051
12.392,1.697168
12.396,1.694414
12.4,1.698173
12.404,1.647538
12.408,1.668351
12.412,1.650283
12.416,1.649114
12.42,1.661814
12.424,1.657336
12.428,1.659104
12.432,1.632824
12.436,1.615212
12.44,1.60538
12.444,1.568698
12.448,1.623078
12.452,1.582675
12.456,1.592004
12.46,1.588187
12.464,1.542375
12.468,1.541446
12.472,1.583447
12.476,1.550876
12.48,1.525988
12.484,1.527582
12.488,1.544323
12.492,1.53376
12.496,1.478217
12.5,1.532686
12.504,1.511784
12.508,1.481877
12.512,1.453568
12.516,1.490972
12.52,1.471929
12.524,1.425776
12.528,1.442852
12.532,1.50261
12.536,1.433049
12.54,1.410554
12.544,1.397944
12.548,1.44633
12.552,1.420672
12.556,1.424756
12.56,1.394526
12.564,1.407668
12.568,1.358721
12.572,1.372117
12.576,1.367867
12.58,1.383123
12.584,1.35529
12.588,1.329937
12.592,1.337363
12.596,1.296291
12.6,1.277245
12.604,1.334248
12.608,1.304198
12.612,1.300655
12.616,1.316815
12.62,1.322576
12.624,1.299895
12.628,1.322469
12.632,1.2888
12.636,1.279769
12.64,1.273654
12.644,1.238404
12.648,1.27865
12.652,1.206189
12.656,1.239096
12.66,1.24716
12.664,1.226947
12.668,1.22991
12.672,1.2721
12.676,1.253928
12.68,1.214835
12.684,1.216036
12.688,1.196937
12.692,1.233801
12.696,1.212108
12.7,1.175354
12.704,1.214459
12.708,1.219165
12.712,1.227773
12.716,1.205352
12.72,1.19786
12.724,1.24372
12.728,1.202993
12.732,1.216308
12.736,1.190369
12.74,1.21439
12.744,1.171101
12.748,1.190782
12.752,1.175858
12.756,1.188114
12.76,1.225601
12.764,1.188913
12.768,1.216282
12.772,1.233207
12.776,1.203443
12.78,1.225189
12.784,1.217441
12.788,1.210839
12.792,1.225392
12.796,1.249242
12.8,1.201938
12.804,1.197919
12.808,1.199343
12.812,1.242365
12.816,1.248015
12.82,1.217811
12.824,1.189127
12.828,1.221817
12.832,1.249902
12.836,1.241408
12.84,1.250309
12.844,1.240354
12.848,1.27538
12.852,1.266394
12.856,1.275843
12.86,1.272027
12.864,1.284212
12.868,1.287917
12.872,1.265346
12.876,1.296666
12.88,1.310466
12.884,1.323299
12.888,1.314205
12.892,1.292388
12.896,1.301395
12.9,1.314961
12.904,1.333609
12.908,1.333637
12.912,1.319973
12.916,1.326319
12.92,1.313503
12.924,1.299737
12.928,1.36623
12.932,1.422092
12.936,1.418523
12.94,1.369998
12.944,1.399605
12.948,1.374425
12.952,1.384645
12.956,1.394165
12.96,1.420883
12.964,1.42907
12.968,1.445141
12.972,1.460757
12.976,1.448195
12.98,1.463124
12.984,1.448015
12.988,1.450512
12.992,1.454947
12.996,1.505446
13.0,1.493242
13.004,1.470117
13.008,1.513812
13.012,1.497622
13.016,1.563316
13.02,1.526024
13.024,1.558698
13.028,1.574286
13.032,1.540814
13.036,1.568802
13.04,1.585676
13.044,1.584197
13.048,1.596334
13.052,1.56969
13.056,1.614474
13.06,1.600714
13.064,1.624401
13.068,1.642712
13.072,1.644511
13.076,1.644848
13.08,1.657369
13.084,1.664855
13.088,1.687462
13.092,1.663237
13.096,1.67346
13.1,1.694977
13.104,1.672571
13.108,1.661602
13.112,1.703981
13.116,1.695683
13.12,1.681214
13.124,1.720806
13.128,1.744715
13.132,1.688659
13.136,1.746722
13.14,1.680413
13.144,1.727881
13.148,1.77728
13.152,1.738335
13.156,1.750978
13.16,1.768556
13.164,1.722929
13.168,1.762497
13.172,1.765972
13.176,1.805399
13.18,1.746733
13.184,1.766942
13.188,1.758956
13.192,1.75961
13.196,1.805445
13.2,1.78585
13.204,1.776445
13.208,1.779258
13.212,1.780225
13.216,1.783704
13.22,1.769397
13.224,1.790831
13.228,1.789954
13.232,1.782927
13.236,1.801941
13.24,1.804206
13.244,1.788654
13.248,1.797094
13.252,1.843149
13.256,1.842196
13.26,1.778326
13.264,1.780551
13.268,1.776895
13.272,1.81828
13.276,1.788035
13.28,1.79948
13.284,1.83312
13.288,1.79128
13.292,1.803739
13.296,1.797965
13.3,1.773553
13.304,1.80408
13.308,1.763305
13.312,1.804321
13.316,1.762823
13.32,1.761889
13.324,1.746383
13.328,1.746202
13.332,1.75252
13.336,1.708631
13.34,1.748632
13.344,1.739019
13.348,1.760702
13.352,1.74893
13.356,1.721734
13.36,1.721983
13.364,1.721583
13.368,1.750973
13.372,1.699647
13.376,1.6964
13.38,1.682792
13.384,1.670163
13.388,1.700257
13.392,1.692365
13.396,1.708034
13.4,1.697164
13.404,1.718123
13.408,1.662441
13.412,1.652342
13.416,1.625082
13.42,1.658458
13.424,1.640245
13.428,1.64416
13.432,1.60153
13.436,1.624444
13.44,1.614541
13.444,1.606174
13.448,1.582618
13.452,1.612899
13.456,1.622892
13.46,1.5524
13.464,1.58169
13.468,1.502356
13.472,1.565879
13.476,1.507665
13.48,1.527101
13.484,1.503848
13.488,1.518286
13.492,1.531849
13.496,1.470393
13.5,1.49281
13.504,1.482194
13.508,1.516548
13.512,1.486037
13.516,1.446347
13.52,1.452974
13.524,1.486054
13.528,1.46178
13.532,1.421722
13.536,1.427377
13.54,1.420691
13.544,1.407355
13.548,1.376683
13.552,1.390164
13.556,1.424391
13.56,1.38194
13.564,1.380523
13.568,1.378498
13.572,1.413228
13.576,1.362304
13.58,1.377353
13.584,1.336949
13.588,1.33726
13.592,1.336333
13.596,1.314337
13.6,1.31959
13.604,1.335382
13.608,1.295685
13.612,1.305885
13.616,1.314371
13.62,1.278147
13.624,1.311113
13.628,1.285365
13.632,1.275444
13.636,1.233562
13.64,1.261374
13.644,1.271545
13.648,1.294437
13.652,1.266456
13.656,1.273346
13.66,1.22252
13.664,1.240206
13.668,1.26336
13.672,1.217558
13.676,1.251152
13.68,1.243218
13.684,1.230922
13.688,1.215903
13.692,1.199975
13.696,1.25261
13.7,1.22732
13.704,1.219256
13.708,1.202129
13.712,1.209268
13.716,1.210114
13.72,1.213311
13.724,1.218681
13.728,1.187212
13.732,1.172585
13.736,1.202846
13.74,1.165648
13.744,1.19374
13.748,1.18984
13.752,1.209859
13.756,1.239865
13.76,1.1617
13.764,1.246644
13.768,1.197255
13.772,1.209818
13.776,1.175698
13.78,1.225251
13.784,1.207649
13.788,1.207281
13.792,1.171638
13.796,1.213919
13.8,1.2316
13.804,1.212377
13.808,1.243185
13.812,1.245135
13.816,1.212606
13.82,1.260454
13.824,1.232753
13.828,1.236308
13.832,1.240924
13.836,1.244128
13.84,1.194099
13.844,1.247111
13.848,1.227819
13.852,1.292057
13.856,1.295835
13.86,1.285885
13.864,1.268955
13.868,1.258586
13.872,1.270756
13.876,1.328058
13.88,1.280792
13.884,1.253085
13.888,1.326487
13.892,1.341703
13.896,1.350805
13.9,1.344431
13.904,1.35385
13.908,1.33714
13.912,1.300922
13.916,1.349471
13.92,1.367905
13.924,1.359421
13.928,1.365249
13.932,1.356405
13.936,1.362553
13.94,1.426326
13.944,1.434094
13.948,1.403664
13.952,1.416518
13.956,1.398497
13.96,1.438245
13.964,1.467912
13.968,1.409502
13.972,1.456771
13.976,1.465713
13.98,1.472952
13.984,1.502748
13.988,1.518122
13.992,1.480257
13.996,1.505924
14.0,1.501685
14.004,1.494897
14.008,1.52049
14.012,1.536028
14.016,1.534447
14.02,1.519976
14.024,1.535796
14.028,1.543389
14.032,1.543064
14.036,1.573552
14.04,1.582969
14.044,1.601476
14.048,1.57196
14.052,1.584734
14.056,1.634484
14.06,1.607147
14.064,1.618015
14.068,1.620811
14.072,1.653795
14.076,1.66131
14.08,1.66679
14.084,1.651618
14.088,1.640104
14.092,1.702423
14.096,1.687307
14.1,1.667202
14.104,1.710855
14.108,1.677595
14.112,1.722331
14.116,1.729369
14.12,1.686934
14.124,1.72243
14.128,1.731737
14.132,1.773552
14.136,1.711429
14.14,1.759805
14.144,1.736233
14.148,1.715643
14.152,1.742502
14.156,1.749228
14.16,1.732121
14.164,1.763501
14.168,1.780211
14.172,1.769451
14.176,1.757316
14.18,1.768479
14.184,1.774481
14.188,1.78187
14.192,1.802495
14.196,1.788336
14.2,1.757263
14.204,1.77631
14.208,1.792935
14.212,1.813972
14.216,1.819137
14.22,1.83018
14.224,1.798618
14.228,1.812405
14.232,1.768994
14.236,1.807438
14.24,1.777903
14.244,1.798536
14.248,1.860573
14.252,1.806047
14.256,1.782511
14.26,1.807564
14.264,1.788499
14.268,1.778869
14.272,1.839201
14.276,1.817342
14.28,1.801597
14.284,1.785344
14.288,1.785274
14.292,1.820464
14.296,1.793688
14.3,1.723661
14.304,1.831316
14.308,1.78396
14.312,1.784391
14.316,1.796306
14.32,1.780756
14.324,1.783091
14.328,1.756213
14.332,1.736459
14.336,1.762863
14.34,1.781931
14.344,1.736223
14.348,1.730341
14.352,1.76489
14.356,1.726742
14.36,1.722943
14.364,1.718813
14.368,1.719954
14.372,1.68462
14.376,1.700008
14.38,1.709971
14.384,1.704268
14.388,1.717277
14.392,1.725095
14.396,1.712629
14.4,1.694629
14.404,1.667206
14.408,1.651457
14.412,1.65791
14.416,1.662799
14.42,1.660965
14.424,1.650336
14.428,1.628711
14.432,1.64005
14.436,1.64263
14.44,1.628041
14.444,1.602753
14.448,1.579606
14.452,1.571961
14.456,1.568261
14.46,1.579748
14.464,1.577677
14.468,1.531622
14.472,1.542427
14.476,1.549933
14.48,1.519606
14.484,1.538787
14.488,1.516449
14.492,1.500605
14.496,1.508603
14.5,1.507846
14.504,1.47549
14.508,1.480074
14.512,1.486756
14.516,1.45465
14.52,1.429245
14.524,1.424201
14.528,1.439132
14.532,1.413719
14.536,1.425764
14.54,1.458692
14.544,1.390542
14.548,1.405235
14.552,1.446363
14.556,1.40477
14.56,1.382208
14.564,1.37945
14.568,1.384275
14.572,1.402781
14.576,1.351509
14.58,1.340322
14.584,1.321337
14.588,1.34451
14.592,1.307968
14.596,1.320544
14.6,1.305491
14.604,1.339103
14.608,1.301525
14.612,1.313822
14.616,1.268115
14.62,1.297266
14.624,1.265142
14.628,1.275394
14.632,1.32297
14.636,1.292368
14.64,1.266278
14.644,1.328092
14.648,1.241226
14.652,1.278403
14.656,1.220168
14.66,1.241823
14.664,1.215786
14.668,1.24409
14.672,1.236432
14.676,1.225694
14.68,1.250393
14.684,1.214086
14.688,1.229014
14.692,1.236112
14.696,1.187438
14.7,1.199715
14.704,1.213521
14.708,1.222989
14.712,1.236935
14.716,1.202502
14.72,1.198984
14.724,1.186542
14.728,1.209461
14.732,1.195974
14.736,1.195679
14.74,1.198714
14.744,1.211246
14.748,1.188749
14.752,1.184581
14.756,1.208848
14.76,1.140077
14.764,1.189086
14.768,1.17889
14.772,1.226927
14.776,1.195176
14.78,1.1941
14.784,1.205847
14.788,1.196603
14.792,1.202333
14.796,1.214386
14.8,1.206242
14.804,1.208518
14.808,1.199498
14.812,1.199401
14.816,1.22664
14.82,1.234684
14.824,1.203284
14.828,1.250511
14.832,1.254226
14.836,1.262236
14.84,1.252699
14.844,1.263563
14.848,1.298799
14.852,1.253499
14.856,1.2432
14.86,1.238165
14.864,1.308838
14.868,1.314122
14.872,1.265415
14.876,1.274659
14.88,1.288156
14.884,1.324682
14.888,1.280137
14.892,1.27236
14.896,1.360971
14.9,1.329912
14.904,1.338908
14.908,1.33198
14.912,1.351763
14.916,1.318629
14.92,1.338655
14.924,1.364229
14.928,1.323447
14.932,1.369637
14.936,1.375305
14.94,1.383509
14.944,1.385585
14.948,1.383799
14.952,1.374447
14.956,1.421009
14.96,1.419391
14.964,1.405213
14.968,1.441338
14.972,1.441594
14.976,1.445712
14.98,1.419262
14.984,1.483547
14.988,1.452741
14.992,1.486192
14.996,1.476296
15.0,1.492225
15.004,1.530585
15.008,1.525706
15.012,1.545199
15.016,1.536716
15.02,1.545523
15.024,1.509445
15.028,1.546156
15.032,1.555415
15.036,1.591755
15.04,1.564482
15.044,1.587183
15.048,1.593628
15.052,1.619437
15.056,1.600718
15.06,1.626993
15.064,1.583315
15.068,1.592032
15.072,1.585468
15.076,1.653594
15.08,1.657999
15.084,1.669024
15.088,1.644005
15.092,1.652647
15.096,1.66776
15.1,1.70521
15.104,1.716256
15.108,1.704184
15.112,1.700737
15.116,1.726511
15.12,1.700247
15.124,1.702976
15.128,1.713512
15.132,1.70168
15.136,1.722775
15.14,1.708806
15.144,1.756387
15.148,1.751344
15.152,1.773493
15.156,1.716593
15.16,1.791332
15.164,1.725808
15.168,1.737089
15.172,1.752271
15.176,1.794307
15.18,1.77596
15.184,1.769696
15.188,1.761671
15.192,1.75278
15.196,1.80555
15.2,1.80129
15.204,1.814606
15.208,1.797551
15.212,1.738647
15.216,1.768289
15.22,1.803984
15.224,1.788611
15.228,1.785962
15.232,1.776019
15.236,1.817792
15.24,1.808532
15.244,1.809811
15.248,1.787304
15.252,1.803502
15.256,1.773032
15.26,1.796811
15.264,1.748281
15.268,1.766721
15.272,1.790692
15.276,1.843508
15.28,1.758671
15.284,1.768309
15.288,1.795825
15.292,1.825003
15.296,1.7916
15.3,1.79936
15.304,1.776145
15.308,1.770086
15.312,1.779167
15.316,1.761407
15.32,1.785934
15.324,1.736027
15.328,1.782487
15.332,1.761841
15.336,1.752964
15.34,1.720439
15.344,1.729583
15.348,1.768875
15.352,1.736298
15.356,1.741454
15.36,1.713563
15.364,1.725694
15.368,1.693811
15.372,1.71809
15.376,1.718208
15.38,1.711776
15.384,1.681732
15.388,1.687276
15.392,1.699051
15.396,1.67815
15.4,1.670589
15.404,1.70825
15.408,1.644899
15.412,1.679161
15.416,1.627993
15.42,1.657622
15.424,1.652037
15.428,1.620927
15.432,1.599963
15.436,1.578003
15.44,1.598135
15.444,1.613917
15.448,1.574731
15.452,1.591051
15.456,1.552357
15.46,1.569929
15.464,1.54434
15.468,1.558353
15.472,1.542485
15.476,1.52126
15.48,1.524423
15.484,1.511425
15.488,1.49632
15.492,1.536728
15.496,1.500336
15.5,1.455955
15.504,1.479995
15.508,1.503221
15.512,1.462175
15.516,1.499846
15.52,1.445267
15.524,1.465
15.528,1.468226
15.532,1.449091
15.536,1.405229
15.54,1.406544
15.544,1.441516
15.548,1.394795
15.552,1.42323
15.556,1.388001
15.56,1.392391
15.564,1.354866
15.568,1.363522
15.572,1.351359
15.576,1.366638
15.58,1.357338
15.584,1.358166
15.588,1.332637
15.592,1.317477
15.596,1.333474
15.6,1.303073
15.604,1.339189
15.608,1.309402
15.612,1.299361
15.616,1.30944
15.62,1.293109
15.624,1.256044
15.628,1.262679
15.632,1.2999
15.636,1.275402
15.64,1.235215
15.644,1.271156
15.648,1.248345
15.652,1.237608
15.656,1.227924
15.66,1.2667
15.664,1.203432
15.668,1.222194
15.672,1.237715
15.676,1.263415
15.68,1.239629
15.684,1.208507
15.688,1.253064
15.692,1.192599
15.696,1.22241
15.7,1.224439
15.704,1.194821
15.708,1.224337
15.712,1.198233
15.716,1.220722
15.72,1.168522
15.724,1.210694
15.728,1.194619
15.732,1.224911
15.736,1.20028
15.74,1.225577
15.744,1.210365
15.748,1.197474
15.752,1.215777
15.756,1.216094
15.76,1.21003
15.764,1.155314
15.768,1.182265
15.772,1.230544
15.776,1.178875
15.78,1.222963
15.784,1.220949
15.788,1.193995
15.792,1.170481
15.796,1.201065
15.8,1.256243
15.804,1.199837
15.808,1.203816
15.812,1.202525
15.816,1.249723
15.82,1.223694
15.824,1.219329
15.828,1.263582
15.832,1.250535
15.836,1.224356
15.84,1.22223
15.844,1.273985
15.848,1.255434
15.852,1.228549
15.856,1.228451
15.86,1.246525
15.864,1.248935
15.868,1.237825
15.872,1.261917
15.876,1.270823
15.88,1.285382
15.884,1.334055
15.888,1.300546
15.892,1.308341
15.896,1.327806
15.9,1.318918
15.904,1.337822
15.908,1.341694
15.912,1.344899
15.916,1.404242
15.92,1.373696
15.924,1.340492
15.928,1.37627
15.932,1.359853
15.936,1.391513
15.94,1.362059
15.944,1.374452
15.948,1.410595
15.952,1.430841
15.956,1.428167
15.96,1.442475
15.964,1.440195
15.968,1.443537
15.972,1.437419
15.976,1.471192
15.98,1.482898
15.984,1.468629
15.988,1.475063
15.992,1.516755
15.996,1.492053
16.0,1.501514
16.004,1.517224
16.008,1.513117
16.012,1.506191
16.016,1.537668
16.02,1.536825
16.024,1.581913
16.028,1.568276
16.032,1.548003
16.036,1.581862
16.04,1.580764
16.044,1.608074
16.048,1.578623
16.052,1.600057
16.056,1.601411
16.06,1.611607
16.064,1.599708
16.068,1.635831
16.072,1.639494
16.076,1.663578
16.08,1.644326
16.084,1.64285
16.088,1.673338
16.092,1.648034
16.096,1.69188
16.1,1.697992
16.104,1.707525
16.108,1.69584
16.112,1.684387
16.116,1.701987
16.12,1.712966
16.124,1.699592
16.128,1.742755
16.132,1.732856
16.136,1.708431
16.14,1.768811
16.144,1.737834
16.148,1.718588
16.152,1.728297
16.156,1.778934
16.16,1.789798
16.164,1.777448
16.168,1.787441
16.172,1.78902
16.176,1.779291
16.18,1.778029
16.184,1.78537
16.188,1.792243
16.192,1.765467
16.196,1.797536
16.2,1.814489
16.204,1.783429
16.208,1.78335
16.212,1.80102
16.216,1.780187
16.22,1.76835
16.224,1.81896
16.228,1.788119
16.232,1.798452
16.236,1.786638
16.24,1.824943
16.244,1.81685
16.248,1.795162
16.252,1.776378
16.256,1.792848
16.26,1.810811
16.264,1.802613
16.268,1.800265
16.272,1.801372
16.276,1.811182
16.28,1.793849
16.284,1.802181
16.288,1.771751
16.292,1.840692
16.296,1.781879
16.3,1.789389
16.304,1.794226
16.308,1.772083
16.312,1.77768
16.316,1.774486
16.32,1.753167
16.324,1.776924
16.328,1.731703
16.332,1.796109
16.336,1.773117
16.34,1.766081
16.344,1.714446
16.348,1.729051
16.352,1.768257
16.356,1.818911
16.36,1.755048
16.364,1.747014
16.368,1.731753
16.372,1.699143
16.376,1.730698
16.38,1.68334
16.384,1.675592
16.388,1.668646
16.392,1.707822
16.396,1.681231
16.4,1.678353
16.404,1.669873
16.408,1.641404
16.412,1.644138
16.416,1.638678
16.42,1.616421
16.424,1.62779
16.428,1.609509
16.432,1.635866
16.436,1.630632
16.44,1.584565
16.444,1.59746
16.448,1.633404
16.452,1.569497
16.456,1.590418
16.46,1.576717
16.464,1.589139
16.468,1.565822
16.472,1.543881
16.476,1.546403
16.48,1.539227
16.484,1.528275
16.488,1.496216
16.492,1.539935
16.496,1.528868
16.5,1.479116
16.504,1.486446
16.508,1.480425
16.512,1.454272
16.516,1.432556
16.52,1.448988
16.524,1.447804
16.528,1.418668
16.532,1.443627
16.536,1.455976
16.54,1.442235
16.544,1.415581
16.548,1.374079
16.552,1.418031
16.556,1.399535
16.56,1.39805
16.564,1.42131
16.568,1.359191
16.572,1.311369
16.576,1.341057
16.58,1.365195
16.584,1.349452
16.588,1.318135
16.592,1.307687
16.596,1.322727
16.6,1.298743
16.604,1.328034
16.608,1.303464
16.612,1.293341
16.616,1.285031
16.62,1.299898
16.624,1.290057
16.628,1.287946
16.632,1.282349
16.636,1.272281
16.64,1.248183
16.644,1.249506
16.648,1.251636
16.652,1.296402
16.656,1.223845
16.66,1.238322
16.664,1.244707
16.668,1.232878
16.672,1.256792
16.676,1.225678
16.68,1.223861
16.684,1.24172
16.688,1.258691
16.692,1.247851
16.696,1.21437
16.7,1.213693
16.704,1.213378
16.708,1.213325
16.712,1.191564
16.716,1.225551
16.72,1.209446
16.724,1.203097
16.728,1.177439
16.732,1.203162
16.736,1.163296
16.74,1.188959
16.744,1.188951
16.748,1.205764
16.752,1.237621
16.756,1.211651
16.76,1.22956
16.764,1.214064
16.768,1.224418
16.772,1.240004
16.776,1.189357
16.78,1.189372
16.784,1.220196
16.788,1.208437
16.792,1.214793
16.796,1.20747
16.8,1.202758
16.804,1.249518
16.808,1.197704
16.812,1.236205
16.816,1.235912
16.82,1.196972
16.824,1.215232
16.828,1.222059
16.832,1.250237
16.836,1.235401
16.84,1.24499
16.844,1.221668
16.848,1.301616
16.852,1.260954
16.856,1.274093
16.86,1.258034
16.864,1.260672
16.868,1.317
16.872,1.245573
16.876,1.294778
16.88,1.270406
16.884,1.292096
16.888,1.293121
16.892,1.291973
16.896,1.31833
16.9,1.272304
16.904,1.32351
16.908,1.334276
16.912,1.315262
16.916,1.379177
16.92,1.343585
16.924,1.357376
16.928,1.357021
16.932,1.374056
16.936,1.408751
16.94,1.439023
16.944,1.41152
16.948,1.425477
16.952,1.445216
16.956,1.423092
16.96,1.456798
16.964,1.448567
16.968,1.442967
16.972,1.4545
16.976,1.418504
16.98,1.468242
16.984,1.439017
16.988,1.444897
16.992,1.488784
16.996,1.470179
17.0,1.499858
17.004,1.510308
17.008,1.518734
17.012,1.504516
17.016,1.548082
17.02,1.535815
17.024,1.553889
17.028,1.528578
17.032,1.556346
17.036,1.589227
17.04,1.594011
17.044,1.56594
17.048,1.578201
17.052,1.576509
17.056,1.590265
17.06,1.582456
17.064,1.614649
17.068,1.636975
17.072,1.615434
17.076,1.636062
17.08,1.640116
17.084,1.672189
17.088,1.645321
17.092,1.652414
17.096,1.65326
17.1,1.653585
17.104,1.692963
17.108,1.685605
17.112,1.695213
17.116,1.725296
17.12,1.732006
17.124,1.67787
17.128,1.729049
17.132,1.725767
17.136,1.717044
17.14,1.737708
17.144,1.701359
17.148,1.769723
17.152,1.755201
17.156,1.731875
17.16,1.74159
17.164,1.723195
17.168,1.754776
17.172,1.755033
17.176,1.74165
17.18,1.786982
17.184,1.800108
17.188,1.776976
17.192,1.774186
17.196,1.791597
17.2,1.784924
17.204,1.765913
17.208,1.776561
17.212,1.785561
17.216,1.798144
17.22,1.794873
17.224,1.800213
17.228,1.766642
17.232,1.811388
17.236,1.798908
17.24,1.850462
17.244,1.792034
17.248,1.806445
17.252,1.856561
17.256,1.803669
17.26,1.798055
17.264,1.779102
17.268,1.828649
17.272,1.773956
17.276,1.804548
17.28,1.785215
17.284,1.789394
17.288,1.763011
17.292,1.816477
17.296,1.782001
17.3,1.761015
17.304,1.807951
17.308,1.770216
17.312,1.784215
17.316,1.791401
17.32,1.780929
17.324,1.72422
17.328,1.778595
17.332,1.759043
17.336,1.750677
17.34,1.751117
17.344,1.716978
17.348,1.748745
17.352,1.713182
17.356,1.73017
17.36,1.734279
17.364,1.747756
17.368,1.704862
17.372,1.745124
17.376,1.729732
17.38,1.696776
17.384,1.677629
17.388,1.66524
17.392,1.693742
17.396,1.667633
17.4,1.700323
17.404,1.65659
17.408,1.645905
17.412,1.662225
17.416,1.637366
17.42,1.644697
17.424,1.657594
17.428,1.633479
17.432,1.626732
17.436,1.621515
17.44,1.576575
17.444,1.61123
17.448,1.599482
17.452,1.60697
17.456,1.594002
17.46,1.570568
17.464,1.587929
17.468,1.55406
17.472,1.55745
17.476,1.538845
17.48,1.546835
17.484,1.522579
17.488,1.555549
17.492,1.555421
17.496,1.525018
17.5,1.530826
17.504,1.461677
17.508,1.456499
17.512,1.470971
17.516,1.470716
17.52,1.458436
17.524,1.42209
17.528,1.470525
17.532,1.483171
17.536,1.458339
17.54,1.447103
17.544,1.422637
17.548,1.394028
17.552,1.405167
17.556,1.438719
17.56,1.382523
17.564,1.373489
17.568,1.397833
17.572,1.392339
17.576,1.345168
17.58,1.350244
17.584,1.338875
17.588,1.343841
17.592,1.358155
17.596,1.313739
17.6,1.345458
17.604,1.319654
17.608,1.358216
17.612,1.31226
17.616,1.298258
17.62,1.30613
17.624,1.282462
17.628,1.248002
17.632,1.273936
17.636,1.268599
17.64,1.237
17.644,1.262653
17.648,1.218188
17.652,1.248144
17.656,1.255693
17.66,1.248642
17.664,1.234521
17.668,1.237234
17.672,1.219631
17.676,1.232064
17.68,1.229714
17.684,1.207423
17.688,1.227831
17.692,1.22493
17.696,1.213779
17.7,1.263104
17.704,1.209629
17.708,1.204801
17.712,1.200063
17.716,1.187401
17.72,1.219032
17.724,1.190269
17.728,1.191503
17.732,1.191152
17.736,1.181461
17.74,1.16557
17.744,1.190954
17.748,1.21749
17.752,1.203963
17.756,1.231425
17.76,1.215611
17.764,1.211639
17.768,1.23957
17.772,1.200919
17.776,1.205256
17.78,1.205085
17.784,1.237695
17.788,1.208561
17.792,1.19742
17.796,1.224197
17.8,1.198358
17.804,1.227772
17.808,1.227978
17.812,1.218689
17.816,1.236744
17.82,1.198796
17.824,1.235107
17.828,1.226057
17.832,1.29619
17.836,1.245859
17.84,1.234774
17.844,1.223255
17.848,1.281206
17.852,1.252529
17.856,1.248286
17.86,1.275572
17.864,1.286719
17.868,1.291425
17.872,1.284302
17.876,1.292389
17.88,1.299277
17.884,1.306924
17.888,1.314381
17.892,1.333582
17.896,1.318749
17.9,1.307328
17.904,1.326933
17.908,1.351157
17.912,1.306717
17.916,1.313298
17.92,1.373839
17.924,1.392528
17.928,1.343561
17.932,1.377697
17.936,1.374597
17.94,1.384346
17.944,1.402718
17.948,1.37786
17.952,1.388743
17.956,1.412089
17.96,1.422486
17.964,1.4102
17.968,1.45588
17.972,1.439142
17.976,1.446496
17.98,1.468053
17.984,1.467313
17.988,1.494151
17.992,1.466258
17.996,1.464513
18.0,1.493804
18.004,1.508744
18.008,1.490258
18.012,1.494843
18.016,1.533754
18.02,1.522444
18.024,1.516017
18.028,1.571814
18.032,1.547277
18.036,1.590277
18.04,1.575176
18.044,1.587781
18.048,1.584882
18.052,1.54318
18.056,1.580657
18.06,1.607923
18.064,1.624707
18.068,1.588519
18.072,1.630063
18.076,1.615429
18.08,1.649219
18.084,1.650699
18.088,1.672422
18.092,1.685255
18.096,1.67936
18.1,1.693543
18.104,1.675372
18.108,1.74477
18.112,1.66974
18.116,1.689248
18.12,1.723391
18.124,1.725849
18.128,1.72584
18.132,1.73476
18.136,1.684604
18.14,1.76294
18.144,1.731809
18.148,1.765388
18.152,1.704231
18.156,1.75431
18.16,1.742028
18.164,1.7687
18.168,1.767397
18.172,1.772008
18.176,1.746974
18.18,1.770309
18.184,1.770969
18.188,1.787429
18.192,1.800085
18.196,1.785907
18.2,1.759794
18.204,1.789708
18.208,1.841836
18.212,1.82441
18.216,1.733692
18.22,1.795953
18.224,1.814648
18.228,1.793492
18.232,1.788882
18.236,1.793501
18.24,1.810452
18.244,1.776817
18.248,1.82375
18.252,1.798856
18.256,1.781086
18.26,1.821895
18.264,1.767937
18.268,1.786979
18.272,1.785705
18.276,1.838885
18.28,1.780986
18.284,1.750081
18.288,1.779853
18.292,1.798725
18.296,1.803238
18.3,1.830848
18.304,1.811035
18.308,1.784057
18.312,1.759695
18.316,1.807053
18.32,1.764077
18.324,1.754989
18.328,1.756346
18.332,1.736009
18.336,1.747958
18.34,1.748636
18.344,1.763792
18.348,1.73714
18.352,1.715121
18.356,1.703811
18.36,1.735345
18.364,1.727728
18.368,1.710168
18.372,1.706744
18.376,1.718565
18.38,1.733175
18.384,1.684201
18.388,1.695895
18.392,1.707473
18.396,1.666857
18.4,1.676023
18.404,1.669421
18.408,1.637692
18.412,1.660922
18.416,1.651718
18.42,1.655628
18.424,1.614136
18.428,1.631334
18.432,1.651947
18.436,1.658962
18.44,1.63604
18.444,1.579851
18.448,1.605304
18.452,1.57945
18.456,1.587564
18.46,1.559163
18.464,1.533012
18.468,1.553023
18.472,1.566959
18.476,1.550828
18.48,1.545659
18.484,1.534436
18.488,1.530689
18.492,1.525664
18.496,1.502045
18.5,1.501658
18.504,1.527326
18.508,1.487767
18.512,1.478253
18.516,1.471949
18.52,1.458042
18.524,1.446225
18.528,1.451667
18.532,1.429973
18.536,1.429808
18.54,1.409583
18.544,1.420275
18.548,1.422571
18.552,1.399479
18.556,1.35644
18.56,1.40137
18.564,1.384992
18.568,1.355823
18.572,1.384331
18.576,1.334158
18.58,1.376382
18.584,1.347766
18.588,1.29707
18.592,1.339648
18.596,1.321695
18.6,1.312527
18.604,1.302866
18.608,1.309148
18.612,1.296179
18.616,1.263063
18.62,1.320077
18.624,1.284318
18.628,1.269269
18.632,1.256178
18.636,1.289139
18.64,1.242877
18.644,1.266793
18.648,1.247857
18.652,1.24459
18.656,1.22875
18.66,1.234295
18.664,1.242918
18.668,1.243651
18.672,1.219601
18.676,1.230029
18.68,1.246321
18.684,1.192175
18.688,1.222351
18.692,1.200686
18.696,1.196049
18.7,1.219903
18.704,1.201538
18.708,1.186049
18.712,1.234996
18.716,1.225221
18.72,1.166668
18.724,1.174506
18.728,1.214731
18.732,1.196219
18.736,1.231171
18.74,1.212919
18.744,1.206202
18.748,1.179586
18.752,1.209852
18.756,1.174698
18.76,1.226697
18.764,1.209603
18.768,1.18542
18.772,1.218955
18.776,1.248825
18.78,1.200961
18.784,1.217828
18.788,1.199874
18.792,1.212093
18.796,1.182299
18.8,1.214672
18.804,1.217974
18.808,1.255681
18.812,1.186577
18.816,1.21981
18.82,1.254314
18.824,1.227012
18.828,1.231886
18.832,1.22228
18.836,1.22409
18.84,1.210185
18.844,1.238237
18.848,1.235311
18.852,1.261891
18.856,1.24836
18.86,1.259254
18.864,1.26468
18.868,1.277783
18.872,1.273337
18.876,1.267969
18.88,1.296351
18.884,1.321546
18.888,1.308453
18.892,1.299496
18.896,1.315158
18.9,1.282652
18.904,1.327031
18.908,1.328075
18.912,1.323778
18.916,1.333871
18.92,1.347269
18.924,1.381975
18.928,1.390706
18.932,1.357125
18.936,1.372226
18.94,1.379711
18.944,1.412798
18.948,1.406627
18.952,1.412743
18.956,1.42884
18.96,1.413465
18.964,1.459997
18.968,1.440052
18.972,1.430375
18.976,1.45034
18.98,1.487039
18.984,1.461389
18.988,1.496393
18.992,1.47242
18.996,1.477148
19.0,1.513192
19.004,1.49006
19.008,1.531524
19.012,1.529631
19.016,1.512637
19.02,1.536171
19.024,1.534092
19.028,1.559486
19.032,1.597669
19.036,1.559867
19.04,1.585282
19.044,1.582374
19.048,1.589594
19.052,1.592979
19.056,1.586245
19.06,1.61714
19.064,1.611637
19.068,1.606217
19.072,1.651418
19.076,1.639854
19.08,1.639964
19.084,1.677888
19.088,1.620831
19.092,1.689375
19.096,1.652577
19.1,1.680566
19.104,1.670618
19.108,1.669847
19.112,1.720395
19.116,1.736928
19.12,1.70094
19.124,1.717504
19.128,1.717233
19.132,1.755864
19.136,1.684012
19.14,1.738696
19.144,1.721344
19.148,1.693351
19.152,1.737691
19.156,1.78614
19.16,1.740177
19.164,1.773073
19.168,1.785029
19.172,1.764433
19.176,1.770562
19.18,1.737122
19.184,1.760249
19.188,1.795663
19.192,1.781512
19.196,1.790244
19.2,1.78798
19.204,1.831397
19.208,1.781004
19.212,1.823598
19.216,1.795851
19.22,1.82857
19.224,1.771506
19.228,1.800831
19.232,1.79021
19.236,1.80163
19.24,1.823856
19.244,1.807363
19.248,1.824384
19.252,1.786572
19.256,1.78333
19.26,1.79973
19.264,1.798067
19.268,1.794366
19.272,1.777966
19.276,1.819979
19.28,1.787429
19.284,1.821702
19.288,1.791744
19.292,1.802583
19.296,1.798711
19.3,1.768831
19.304,1.790241
19.308,1.818865
19.312,1.782555
19.316,1.792598
19.32,1.785314
19.324,1.774293
19.328,1.768417
19.332,1.772001
19.336,1.772524
19.34,1.726255
19.344,1.754125
19.348,1.74122
19.352,1.73264
19.356,1.761806
19.36,1.716491
19.364,1.69838
19.368,1.737168
19.372,1.687685
19.376,1.672236
19.38,1.723529
19.384,1.702978
19.388,1.703571
19.392,1.679459
19.396,1.654691
19.4,1.65262
19.404,1.664737
19.408,1.63847
19.412,1.663693
19.416,1.641838
19.42,1.648227
19.424,1.640977
19.428,1.638871
19.432,1.634302
19.436,1.610534
19.44,1.614117
19.444,1.608113
19.448,1.547705
19.452,1.602043
19.456,1.584884
19.46,1.585888
19.464,1.541544
19.468,1.553598
19.472,1.530676
19.476,1.55996
19.48,1.509498
19.484,1.511535
19.488,1.533284
19.492,1.502486
19.496,1.488971
19.5,1.518134
19.504,1.511415
19.508,1.499368
19.512,1.494376
19.516,1.46526
19.52,1.458308
19.524,1.441971
19.528,1.450848
19.532,1.429529
19.536,1.424057
19.54,1.437391
19.544,1.441805
19.548,1.418853
19.552,1.439603
19.556,1.382497
19.56,1.352803
19.564,1.39688
19.568,1.360251
19.572,1.363391
19.576,1.32673
19.58,1.33749
19.584,1.318868
19.588,1.333762
19.592,1.328191
19.596,1.331619
19.6,1.348459
19.604,1.331159
19.608,1.279249
19.612,1.318044
19.616,1.302432
19.62,1.292679
19.624,1.288751
19.628,1.287998
19.632,1.264908
19.636,1.270078
19.64,1.292525
19.644,1.250035
19.648,1.238932
19.652,1.253864
19.656,1.22821
19.66,1.212246
19.664,1.235853
19.668,1.267917
19.672,1.234541
19.676,1.235419
19.68,1.185949
19.684,1.23419
19.688,1.224344
19.692,1.206403
19.696,1.220704
19.7,1.218085
19.704,1.191254
19.708,1.217023
19.712,1.232453
19.716,1.202261
19.72,1.187962
19.724,1.200443
19.728,1.219954
19.732,1.17739
19.736,1.212731
19.74,1.187032
19.744,1.205054
19.748,1.188737
19.752,1.188683
19.756,1.230675
19.76,1.17241
19.764,1.210867
19.768,1.236543
19.772,1.216572
19.776,1.177372
19.78,1.179682
19.784,1.191787
19.788,1.211669
19.792,1.214904
19.796,1.18701
19.8,1.197228
19.804,1.200873
19.808,1.216086
19.812,1.262171
19.816,1.206764
19.82,1.209013
19.824,1.209185
19.828,1.248024
19.832,1.238118
19.836,1.224817
19.84,1.239446
19.844,1.234991
19.848,1.261016
19.852,1.313217
19.856,1.275131
19.86,1.266986
19.864,1.260425
19.868,1.251878
19.872,1.298581
19.876,1.302792
19.88,1.285314
19.884,1.324463
19.888,1.306305
19.892,1.327188
19.896,1.323545
19.9,1.320122
19.904,1.310722
19.908,1.333171
19.912,1.359289
19.916,1.33875
19.92,1.364269
19.924,1.340471
19.928,1.384466
19.932,1.381946
19.936,1.358546
19.94,1.385082
19.944,1.415236
19.948,1.378536
19.952,1.389469
19.956,1.416724
19.96,1.46806
19.964,1.419267
19.968,1.449992
19.972,1.452696
19.976,1.443142
19.98,1.465623
19.984,1.460935
19.988,1.470246
19.992,1.451701
19.996,1.491972
20.0,1.517982
20.004,1.508688
20.008,1.536883
20.012,1.534205
20.016,1.528918
20.02,1.525041
20.024,1.535342
20.028,1.523097
20.032,1.554571
20.036,1.570201
20.04,1.608915
20.044,1.592452
20.048,1.571815
20.052,1.567496
20.056,1.599262
20.06,1.626673
20.064,1.613
20.068,1.635152
20.072,1.627512
20.076,1.652214
20.08,1.612581
20.084,1.683171
20.088,1.635303
20.092,1.679793
20.096,1.664737
20.1,1.674019
20.104,1.677557
20.108,1.69342
20.112,1.703267
20.116,1.720971
20.12,1.733523
20.124,1.717431
20.128,1.750366
20.132,1.723113
20.136,1.747824
20.14,1.739728
20.144,1.724902
20.148,1.744095
20.152,1.754965
20.156,1.748535
20.16,1.761556
20.164,1.774565
20.168,1.760588
20.172,1.70581
20.176,1.801718
20.18,1.765496
20.184,1.758107
20.188,1.755041
20.192,1.77357
20.196,1.771642
20.2,1.770577
20.204,1.773914
20.208,1.800209
20.212,1.832097
20.216,1.809592
20.22,1.817138
20.224,1.788458
20.228,1.799232
20.232,1.806613
20.236,1.785649
20.24,1.790893
20.244,1.816878
20.248,1.821782
20.252,1.801325
20.256,1.775884
20.26,1.793496
20.264,1.770013
20.268,1.799587
20.272,1.802246
20.276,1.790592
20.28,1.79952
20.284,1.801518
20.288,1.796627
20.292,1.765584
20.296,1.782491
20.3,1.793514
20.304,1.814471
20.308,1.77486
20.312,1.78854
20.316,1.792135
20.32,1.767516
20.324,1.791121
20.328,1.788731
20.332,1.788663
20.336,1.766427
20.34,1.800501
20.344,1.736873
20.348,1.787383
20.352,1.755836
20.356,1.762694
20.36,1.724753
20.364,1.743165
20.368,1.749793
20.372,1.694346
20.376,1.707528
20.38,1.662539
20.384,1.696237
20.388,1.677797
20.392,1.683952
20.396,1.740852
20.4,1.710692
20.404,1.641392
20.408,1.675033
20.412,1.673531
20.416,1.644329
20.42,1.648092
20.424,1.643394
20.428,1.604203
20.432,1.603686
20.436,1.620858
20.44,1.612425
20.444,1.589222
20.448,1.580396
20.452,1.587317
20.456,1.599609
20.46,1.573077
20.464,1.599736
20.468,1.545997
20.472,1.556369
20.476,1.537982
20.48,1.549359
20.484,1.514477
20.488,1.561146
20.492,1.481261
20.496,1.541849
20.5,1.5018
20.504,1.503509
20.508,1.511617
20.512,1.494555
20.516,1.455291
20.52,1.474402
20.524,1.492282
20.528,1.429747
20.532,1.482456
20.536,1.440433
20.54,1.416728
20.544,1.400249
20.548,1.406422
20.552,1.364611
20.556,1.388302
20.56,1.384304
20.564,1.3611
20.568,1.390644
20.572,1.36449
20.576,1.34941
20.58,1.348967
20.584,1.356015
20.588,1.343912
20.592,1.322062
20.596,1.332332
20.6,1.322651
20.604,1.294832
20.608,1.305922
20.612,1.31747
20.616,1.311639
20.62,1.290037
20.624,1.30274
20.628,1.264308
20.632,1.259766
20.636,1.268699
20.64,1.298797
20.644,1.267379
20.648,1.254023
20.652,1.285981
20.656,1.245082
20.66,1.291396
20.664,1.232516
20.668,1.21871
20.672,1.231985
20.676,1.226866
20.68,1.212397
20.684,1.277467
20.688,1.228849
20.692,1.228986
20.696,1.207865
20.7,1.20313
20.704,1.232955
20.708,1.176869
20.712,1.185653
20.716,1.201873
20.72,1.232335
20.724,1.196504
20.728,1.211185
20.732,1.202471
20.736,1.227085
20.74,1.168898
20.744,1.214932
20.748,1.196046
20.752,1.218521
20.756,1.183828
20.76,1.20108
20.764,1.19911
20.768,1.181868
20.772,1.177253
20.776,1.192386
20.78,1.207912
20.784,1.191681
20.788,1.201909
20.792,1.17267
20.796,1.20503
20.8,1.235155
20.804,1.231206
20.808,1.217963
20.812,1.22735
20.816,1.208862
20.82,1.261041
20.824,1.273203
20.828,1.238609
20.832,1.290759
20.836,1.229138
20.84,1.22168
20.844,1.236629
20.848,1.250708
20.852,1.305771
20.856,1.25849
20.86,1.251653
20.864,1.255755
20.868,1.301547
20.872,1.303853
20.876,1.279495
20.88,1.25712
20.884,1.277625
20.888,1.340308
20.892,1.325469
20.896,1.31893
20.9,1.361041
20.904,1.368986
20.908,1.335363
20.912,1.342096
20.916,1.337272
20.92,1.349782
20.924,1.3324
20.928,1.339058
20.932,1.341234
20.936,1.404275
20.94,1.358335
20.944,1.435606
20.948,1.389109
20.952,1.445635
20.956,1.410813
20.96,1.394069
20.964,1.458394
20.968,1.468124
20.972,1.429372
20.976,1.448299
20.98,1.444284
20.984,1.467481
20.988,1.479559
20.992,1.477899
20.996,1.456083
21.0,1.488382
21.004,1.521609
21.008,1.510895
21.012,1.516049
21.016,1.511493
21.02,1.525399
21.024,1.573247
21.028,1.529711
21.032,1.574329
21.036,1.568222
21.04,1.579503
21.044,1.567238
21.048,1.582077
21.052,1.596169
21.056,1.59298
21.06,1.617066
21.064,1.626561
21.068,1.667767
21.072,1.636699
21.076,1.599629
21.08,1.667786
21.084,1.64701
21.088,1.697791
21.092,1.693337
21.096,1.660075
21.1,1.690774
21.104,1.6705
21.108,1.688361
21.112,1.707636
21.116,1.722064
21.12,1.723268
21.124,1.712295
21.128,1.765761
21.132,1.713954
21.136,1.694131
21.14,1.70286
21.144,1.765367
21.148,1.738937
21.152,1.748083
21.156,1.738328
21.16,1.744244
21.164,1.741516
21.168,1.770478
21.172,1.76274
21.176,1.776853
21.18,1.778237
21.184,1.766055
21.188,1.748349
21.192,1.749383
21.196,1.84343
21.2,1.81488
21.204,1.81436
21.208,1.776122
21.212,1.79168
21.216,1.776873
21.22,1.768445
21.224,1.78423
21.228,1.823662
21.232,1.814898
21.236,1.779439
21.24,1.793112
21.244,1.814769
21.248,1.788557
21.252,1.801568
21.256,1.807824
21.26,1.807227
21.264,1.803923
21.268,1.785009
21.272,1.786119
21.276,1.773333
21.28,1.763459
21.284,1.790885
21.288,1.807815
21.292,1.762009
21.296,1.793016
21.3,1.80101
21.304,1.746162
21.308,1.774887
21.312,1.810447
21.316,1.785611
21.32,1.734039
21.324,1.781319
21.328,1.749733
21.332,1.774881
21.336,1.743456
21.34,1.752238
21.344,1.738428
21.348,1.744965
21.352,1.729124
21.356,1.731416
21.36,1.707642
21.364,1.736089
21.368,1.72476
21.372,1.683762
21.376,1.730653
21.38,1.701838
21.384,1.703039
21.388,1.709408
21.392,1.694872
21.396,1.705683
21.4,1.67047
21.404,1.690869
21.408,1.666377
21.412,1.667705
21.416,1.65916
21.42,1.669341
21.424,1.652302
21.428,1.622276
21.432,1.611487
21.436,1.616417
21.44,1.595235
21.444,1.582349
21.448,1.553722
21.452,1.558127
21.456,1.621594
21.46,1.561477
21.464,1.60535
21.468,1.567976
21.472,1.551512
21.476,1.515056
21.48,1.537693
21.484,1.567952
21.488,1.553751
21.492,1.520558
21.496,1.484566
21.5,1.480857
21.504,1.475409
21.508,1.51049
21.512,1.510036
21.516,1.473809
21.52,1.456338
21.524,1.485907
21.528,1.427922
21.532,1.441123
21.536,1.441978
21.54,1.408137
21.544,1.405396
21.548,1.396613
21.552,1.432051
21.556,1.434894
21.56,1.391858
21.564,1.377224
21.568,1.363691
21.572,1.3689
21.576,1.351122
21.58,1.353533
21.584,1.357178
21.588,1.334341
21.592,1.33229
21.596,1.32611
21.6,1.317313
21.604,1.308792
21.608,1.326937
21.612,1.270468
21.616,1.331682
21.62,1.297346
21.624,1.301405
21.628,1.298409
21.632,1.264585
21.636,1.255437
21.64,1.248201
21.644,1.259172
21.648,1.273514
21.652,1.243423
21.656,1.26298
21.66,1.199343
21.664,1.235031
21.668,1.262288
21.672,1.231893
21.676,1.215265
21.68,1.215415
21.684,1.164867
21.688,1.202241
21.692,1.240846
21.696,1.205451
21.7,1.205392
21.704,1.165807
21.708,1.177769
21.712,1.232311
21.716,1.219165
21.72,1.179365
21.724,1.191383
21.728,1.202278
21.732,1.177994
21.736,1.161077
21.74,1.197408
21.744,1.211665
21.748,1.211861
21.752,1.217528
21.756,1.169142
21.76,1.20175
21.764,1.195791
21.768,1.200172
21.772,1.198626
21.776,1.190785
21.78,1.144958
21.784,1.230056
21.788,1.21511
21.792,1.1807
21.796,1.221906
21.8,1.205737
21.804,1.208723
21.808,1.204333
21.812,1.233215
21.816,1.209431
21.82,1.206615
21.824,1.254482
21.828,1.231735
21.832,1.235995
21.836,1.256591
21.84,1.23335
21.844,1.241458
21.848,1.261213
21.852,1.228702
21.856,1.268535
21.86,1.253732
21.864,1.290834
21.868,1.289679
21.872,1.292198
21.876,1.257066
21.88,1.292568
21.884,1.276651
21.888,1.305146
21.892,1.265387
21.896,1.286804
21.9,1.347445
21.904,1.3372
21.908,1.329005
21.912,1.324273
21.916,1.327228
21.92,1.359477
21.924,1.355253
21.928,1.399798
21.932,1.371992
21.936,1.383762
21.94,1.361793
21.944,1.389393
21.948,1.407257
21.952,1.403432
21.956,1.408402
21.96,1.431931
21.964,1.463015
21.968,1.442986
21.972,1.470377
21.976,1.467364
21.98,1.484087
21.984,1.457697
21.988,1.473263
21.992,1.480871
21.996,1.503387
22.0,1.515848
22.004,1.51004
22.008,1.532607
22.012,1.511331
22.016,1.547816
22.02,1.557916
22.024,1.558618
22.028,1.55519
22.032,1.574179
22.036,1.549401
22.04,1.578574
22.044,1.587896
22.048,1.562522
22.052,1.605775
22.056,1.578417
22.06,1.601879
22.064,1.618207
22.068,1.609698
22.072,1.632786
22.076,1.639205
22.08,1.628122
22.084,1.662446
22.088,1.642269
22.092,1.709678
22.096,1.667991
22.1,1.65291
22.104,1.662692
22.108,1.711259
22.112,1.685934
22.116,1.672528
22.12,1.722438
22.124,1.702484
22.128,1.729161
22.132,1.739965
22.136,1.731765
22.14,1.779072
22.144,1.701392
22.148,1.724111
22.152,1.739783
22.156,1.794402
22.16,1.789258
22.164,1.783032
22.168,1.745173
22.172,1.751137
22.176,1.751581
22.18,1.75578
22.184,1.804426
22.188,1.772648
22.192,1.778069
22.196,1.798385
22.2,1.752046
22.204,1.788609
22.208,1.767677
22.212,1.785601
22.216,1.781452
22.22,1.781927
22.224,1.800517
22.228,1.801563
22.232,1.793687
22.236,1.806254
22.24,1.782036
22.244,1.813419
22.248,1.795852
22.252,1.790303
22.256,1.783892
22.26,1.79458
22.264,1.836253
22.268,1.796817
22.272,1.77425
22.276,1.814382
22.28,1.785248
22.284,1.798856
22.288,1.779376
22.292,1.81523
22.296,1.775741
22.3,1.813274
22.304,1.761912
22.308,1.774441
22.312,1.805523
22.316,1.777936
22.32,1.816877
22.324,1.76277
22.328,1.769828
22.332,1.799158
22.336,1.72698
22.34,1.720543
22.344,1.733269
22.348,1.761169
22.352,1.708273
22.356,1.747828
22.36,1.741688
22.364,1.766563
22.368,1.742164
22.372,1.723374
22.376,1.737978
22.38,1.716142
22.384,1.690602
22.388,1.671225
22.392,1.67692
22.396,1.681578
22.4,1.679836
22.404,1.627477
22.408,1.659527
22.412,1.658124
22.416,1.662038
22.42,1.677062
22.424,1.641587
22.428,1.612943
22.432,1.587951
22.436,1.631152
22.44,1.593056
22.444,1.62073
22.448,1.624231
22.452,1.558231
22.456,1.592963
22.46,1.600459
22.464,1.587662
22.468,1.517985
22.472,1.535434
22.476,1.519464
22.48,1.548069
22.484,1.538375
22.488,1.46864
22.492,1.509057
22.496,1.523553
22.5,1.50296
22.504,1.495386
22.508,1.477627
22.512,1.456223
22.516,1.46955
22.52,1.463442
22.524,1.467237
22.528,1.461423
22.532,1.441804
22.536,1.454617
22.54,1.417895
22.544,1.389234
22.548,1.420429
22.552,1.406245
22.556,1.406546
22.56,1.364274
22.564,1.418404
22.568,1.389897
22.572,1.363105
22.576,1.343417
22.58,1.377017
22.584,1.326878
22.588,1.387675
22.592,1.323818
22.596,1.364229
22.6,1.319975
22.604,1.349236
22.608,1.296995
22.612,1.30626
22.616,1.316291
22.62,1.307877
22.624,1.31122
22.628,1.274158
22.632,1.280442
22.636,1.298692
22.64,1.254741
22.644,1.275564
22.648,1.255147
22.652,1.259216
22.656,1.252512
22.66,1.230936
22.664,1.237528
22.668,1.241844
22.672,1.233258
22.676,1.263302
22.68,1.248751
22.684,1.231227
22.688,1.207214
22.692,1.203221
22.696,1.256579
22.7,1.194485
22.704,1.214721
22.708,1.217604
22.712,1.202284
22.716,1.186775
22.72,1.189616
22.724,1.193064
22.728,1.188672
22.732,1.228471
22.736,1.200977
22.74,1.190116
22.744,1.202352
22.748,1.213383
22.752,1.193131
22.756,1.218253
22.76,1.175169
22.764,1.224586
22.768,1.201738
22.772,1.201901
22.776,1.190134
22.78,1.180757
22.784,1.173486
22.788,1.193255
22.792,1.222139
22.796,1.193218
22.8,1.183714
22.804,1.198922
22.808,1.212005
22.812,1.215567
22.816,1.22285
22.82,1.249204
22.824,1.256833
22.828,1.275422
22.832,1.206447
22.836,1.225624
22.84,1.260671
22.844,1.241741
22.848,1.272314
22.852,1.263672
22.856,1.295698
22.86,1.2897
22.864,1.294945
22.868,1.270509
22.872,1.281958
22.876,1.2831
22.88,1.264518
22.884,1.329632
22.888,1.320791
22.892,1.304792
22.896,1.343713
22.9,1.311057
22.904,1.293057
22.908,1.356229
22.912,1.316876
22.916,1.344998
22.92,1.359596
22.924,1.369835
22.928,1.385833
22.932,1.387304
22.936,1.393586
22.94,1.373748
22.944,1.402492
22.948,1.373606
22.952,1.44213
22.956,1.390063
22.96,1.418464
22.964,1.406341
22.968,1.425484
22.972,1.447762
22.976,1.444357
22.98,1.485285
22.984,1.47443
22.988,1.468144
22.992,1.482255
22.996,1.516855
23.0,1.518177
23.004,1.484764
23.008,1.50146
23.012,1.532094
23.016,1.537176
23.02,1.516592
23.024,1.56005
23.028,1.534689
23.032,1.58599
23.036,1.57787
23.04,1.551968
23.044,1.571304
23.048,1.578183
23.052,1.599481
23.056,1.599313
23.06,1.587528
23.064,1.589527
23.068,1.635293
23.072,1.636859
23.076,1.639985
23.08,1.649941
23.084,1.638709
23.088,1.661232
23.092,1.714688
23.096,1.693672
23.1,1.670567
23.104,1.671912
23.108,1.631099
23.112,1.715491
23.116,1.715536
23.12,1.694488
23.124,1.682161
23.128,1.692987
23.132,1.730142
23.136,1.724489
23.14,1.744986
23.144,1.737615
23.148,1.759805
23.152,1.752293
23.156,1.765755
23.16,1.711505
23.164,1.732571
23.168,1.753768
23.172,1.786279
23.176,1.805763
23.18,1.768163
23.184,1.762341
23.188,1.738424
23.192,1.79757
23.196,1.771893
23.2,1.844484
23.204,1.772768
23.208,1.83172
23.212,1.806457
23.216,1.772615
23.22,1.799329
23.224,1.811433
23.228,1.792633
23.232,1.814843
23.236,1.815159
23.24,1.811335
23.244,1.799457
23.248,1.776478
23.252,1.798441
23.256,1.803308
23.26,1.761887
23.264,1.802225
23.268,1.796147
23.272,1.771206
23.276,1.789346
23.28,1.788449
23.284,1.831782
23.288,1.795892
23.292,1.810335
23.296,1.7852
23.3,1.747839
23.304,1.796344
23.308,1.767135
23.312,1.770811
23.316,1.753513
23.32,1.772903
23.324,1.789456
23.328,1.783342
23.332,1.792779
23.336,1.791817
23.34,1.712381
23.344,1.725306
23.348,1.708738
23.352,1.753109
23.356,1.722025
23.36,1.72137
23.364,1.721943
23.368,1.728905
23.372,1.686386
23.376,1.685618
23.38,1.70539
23.384,1.723778
23.388,1.693609
23.392,1.672474
23.396,1.639415
23.4,1.695389
23.404,1.655462
23.408,1.64097
23.412,1.623246
23.416,1.622305
23.42,1.625302
23.424,1.633097
23.428,1.60696
23.432,1.628027
23.436,1.612483
23.44,1.654877
23.444,1.569304
23.448,1.599513
23.452,1.592593
23.456,1.561274
23.46,1.576512
23.464,1.582673
23.468,1.561843
23.472,1.580196
23.476,1.501514
23.48,1.520755
23.484,1.55961
23.488,1.540839
23.492,1.525884
23.496,1.532203
23.5,1.461669
23.504,1.508373
23.508,1.506214
23.512,1.464228
23.516,1.522476
23.52,1.466327
23.524,1.411077
23.528,1.455119
23.532,1.42569
23.536,1.456019
23.54,1.436352
23.544,1.406156
23.548,1.440937
23.552,1.422506
23.556,1.380049
23.56,1.386522
23.564,1.392926
23.568,1.368402
23.572,1.362177
23.576,1.362861
23.58,1.334158
23.584,1.304258
23.588,1.34723
23.592,1.296304
23.596,1.309959
23.6,1.288233
23.604,1.284652
23.608,1.32022
23.612,1.301437
23.616,1.295028
23.62,1.268318
23.624,1.276088
23.628,1.291436
23.632,1.277704
23.636,1.290178
23.64,1.288148
23.644,1.259069
23.648,1.222485
23.652,1.239965
23.656,1.248867
23.66,1.231172
23.664,1.22165
23.668,1.24034
23.672,1.283919
23.676,1.222084
23.68,1.228496
23.684,1.199187
23.688,1.247345
23.692,1.237196
23.696,1.233218
23.7,1.241879
23.704,1.203897
23.708,1.204337
23.712,1.242708
23.716,1.219474
23.72,1.160929
23.724,1.213091
23.728,1.191228
23.732,1.21988
23.736,1.209324
23.74,1.165781
23.744,1.20559
23.748,1.204236
23.752,1.207293
23.756,1.211724
23.76,1.230511
23.764,1.209438
23.768,1.202375
23.772,1.225821
23.776,1.248849
23.78,1.223615
23.784,1.210944
23.788,1.217161
23.792,1.215506
23.796,1.212814
23.8,1.257986
23.804,1.202122
23.808,1.242799
23.812,1.21996
23.816,1.195819
23.82,1.224786
23.824,1.220912
23.828,1.246864
23.832,1.240771
23.836,1.222301
23.84,1.276122
23.844,1.272624
23.848,1.286819
23.852,1.264269
23.856,1.263399
23.86,1.282917
23.864,1.262175
23.868,1.281347
23.872,1.280394
23.876,1.259984
23.88,1.297185
23.884,1.291377
23.888,1.301032
23.892,1.318968
23.896,1.343072
23.9,1.306689
23.904,1.323088
23.908,1.32078
23.912,1.325844
23.916,1.337022
23.92,1.351545
23.924,1.373843
23.928,1.375274
23.932,1.35455
23.936,1.408471
23.94,1.408451
23.944,1.378583
23.948,1.428199
23.952,1.417426
23.956,1.414985
23.96,1.432555
23.964,1.432203
23.968,1.450989
23.972,1.451239
23.976,1.448184
23.98,1.421883
23.984,1.480435
23.988,1.469929
23.992,1.500486
23.996,1.502094
24.0,1.493047
24.004,1.527999
24.008,1.51917
24.012,1.525871
24.016,1.527346
24.02,1.571271
24.024,1.530802
24.028,1.546053
24.032,1.535166
24.036,1.581816
24.04,1.562964
24.044,1.572485
24.048,1.578774
24.052,1.597538
24.056,1.578378
24.06,1.565572
24.064,1.626566
24.068,1.582042
24.072,1.648217
24.076,1.669045
24.08,1.641242
24.084,1.677077
24.088,1.657067
24.092,1.695903
24.096,1.661056
24.1,1.629038
24.104,1.680781
24.108,1.722467
24.112,1.704816
24.116,1.689497
24.12,1.711942
24.124,1.730217
24.128,1.71438
24.132,1.773782
24.136,1.715927
24.14,1.751204
24.144,1.751125
24.148,1.726474
24.152,1.736413
24.156,1.769541
24.16,1.756194
24.164,1.764019
24.168,1.728336
24.172,1.777807
24.176,1.773898
24.18,1.77017
24.184,1.78179
24.188,1.769339
24.192,1.768461
24.196,1.778059
24.2,1.776033
24.204,1.831167
24.208,1.807852
24.212,1.77212
24.216,1.833906
24.22,1.786029
24.224,1.796595
24.228,1.815087
24.232,1.758684
24.236,1.7941
24.24,1.787941
24.244,1.803888
24.248,1.807377
24.252,1.798431
24.256,1.797314
24.26,1.820711
24.264,1.80487
24.268,1.798912
24.272,1.800096
24.276,1.832724
24.28,1.79814
24.284,1.782891
24.288,1.75331
24.292,1.760936
24.296,1.778216
24.3,1.783149
24.304,1.771785
24.308,1.787322
24.312,1.766153
24.316,1.756283
24.32,1.783701
24.324,1.79554
24.328,1.742544
24.332,1.765929
24.336,1.719158
24.34,1.723808
24.344,1.737403
24.348,1.7676
24.352,1.724896
24.356,1.719565
24.36,1.731876
24.364,1.727017
24.368,1.705551
24.372,1.755817
24.376,1.705488
24.38,1.707636
24.384,1.691768
24.388,1.702916
24.392,1.713007
24.396,1.715652
24.4,1.66109
24.404,1.692197
24.408,1.674912
24.412,1.677043
24.416,1.649249
24.42,1.640785
24.424,1.656588
24.428,1.650229
24.432,1.655627
24.436,1.621383
24.44,1.608299
24.444,1.554196
24.448,1.564058
24.452,1.581227
24.456,1.559864
24.46,1.59089
24.464,1.541081
24.468,1.549887
24.472,1.543266
24.476,1.569163
24.48,1.525435
24.484,1.539157
24.488,1.526512
24.492,1.533139
24.496,1.524543
24.5,1.499331
24.504,1.458535
24.508,1.480292
24.512,1.477003
24.516,1.475612
24.52,1.447649
24.524,1.47775
24.528,1.447765
24.532,1.421677
24.536,1.423554
24.54,1.463964
24.544,1.431402
24.548,1.431857
24.552,1.382885
24.556,1.382831
24.56,1.375934
24.564,1.386276
24.568,1.372207
24.572,1.359075
24.576,1.354845
24.58,1.339593
24.584,1.345316
24.588,1.364712
24.592,1.305819
24.596,1.336749
24.6,1.351266
24.604,1.313957
24.608,1.301115
24.612,1.324368
24.616,1.280512
24.62,1.294182
24.624,1.268408
24.628,1.246505
24.632,1.275706
24.636,1.248457
24.64,1.268613
24.644,1.286414
24.648,1.296615
24.652,1.256969
24.656,1.271206
24.66,1.254681
24.664,1.23508
24.668,1.200449
24.672,1.267842
24.676,1.210866
24.68,1.256207
24.684,1.236164
24.688,1.202957
24.692,1.225941
24.696,1.259761
24.7,1.245396
24.704,1.202189
24.708,1.196146
24.712,1.210515
24.716,1.203509
24.72,1.229309
24.724,1.218786
24.728,1.169017
24.732,1.21109
24.736,1.197578
24.74,1.201334
24.744,1.205192
24.748,1.223998
24.752,1.21958
24.756,1.185218
24.76,1.19942
24.764,1.192189
24.768,1.16828
24.772,1.200674
24.776,1.240889
24.78,1.171073
24.784,1.206338
24.788,1.207388
24.792,1.21614
24.796,1.193189
24.8,1.186181
24.804,1.189531
24.808,1.24632
24.812,1.202823
24.816,1.215436
24.82,1.270645
24.824,1.217162
24.828,1.242161
24.832,1.260221
24.836,1.263056
24.84,1.22007
24.844,1.236554
24.848,1.261146
24.852,1.29811
24.856,1.248883
24.86,1.258974
24.864,1.282116
24.868,1.291139
24.872,1.297512
24.876,1.272278
24.88,1.283995
24.884,1.304506
24.888,1.331129
24.892,1.306923
24.896,1.317175
24.9,1.303146
24.904,1.367084
24.908,1.339167
24.912,1.364003
24.916,1.349511
24.92,1.357179
24.924,1.33212
24.928,1.32585
24.932,1.400725
24.936,1.384149
24.94,1.393691
24.944,1.371626
24.948,1.385656
24.952,1.432134
24.956,1.452917
24.96,1.412968
24.964,1.446148
24.968,1.443888
24.972,1.445083
24.976,1.491972
24.98,1.453336
24.984,1.494706
24.988,1.48503
24.992,1.484589
24.996,1.519901
25.0,1.505803
25.004,1.50561
25.008,1.542662
25.012,1.547583
25.016,1.554148
25.02,1.459844
25.024,1.553871
25.028,1.556749
25.032,1.559216
25.036,1.579477
25.04,1.579818
25.044,1.595442
25.048,1.583753
25.052,1.626247
25.056,1.618972
25.06,1.621288
25.064,1.627286
25.068,1.647458
25.072,1.651568
25.076,1.635619
25.08,1.664332
25.084,1.654568
25.088,1.695891
25.092,1.685873
25.096,1.657668
25.1,1.72295
25.104,1.640338
25.108,1.701055
25.112,1.680192
25.116,1.737447
25.12,1.71042
25.124,1.694919
25.128,1.710763
25.132,1.706975
25.136,1.72016
25.14,1.724581
25.144,1.720863
25.148,1.745871
25.152,1.752726
25.156,1.729253
25.16,1.720133
25.164,1.763477
25.168,1.771694
25.172,1.779292
25.176,1.779176
25.18,1.802902
25.184,1.794514
25.188,1.83112
25.192,1.842312
25.196,1.747735
25.2,1.741374
25.204,1.787409
25.208,1.799699
25.212,1.789972
25.216,1.807252
25.22,1.789281
25.224,1.782127
25.228,1.786281
25.232,1.79408
25.236,1.81571
25.24,1.789673
25.244,1.794007
25.248,1.811381
25.252,1.796
25.256,1.822121
25.26,1.781018
25.264,1.776113
25.268,1.804176
25.272,1.805224
25.276,1.778707
25.28,1.821558
25.284,1.831679
25.288,1.778932
25.292,1.819361
25.296,1.739914
25.3,1.806839
25.304,1.765742
25.308,1.79982
25.312,1.758298
25.316,1.773203
25.32,1.755246
25.324,1.763875
25.328,1.801286
25.332,1.758896
25.336,1.799464
25.34,1.745582
25.344,1.779014
25.348,1.712388
25.352,1.73474
25.356,1.725164
25.36,1.761908
25.364,1.72998
25.368,1.679492
25.372,1.68989
25.376,1.690542
25.38,1.724045
25.384,1.715904
25.388,1.688109
25.392,1.677337
25.396,1.696707
25.4,1.653745
25.404,1.679334
25.408,1.671369
25.412,1.652061
25.416,1.659041
25.42,1.646568
25.424,1.647822
25.428,1.604453
25.432,1.636603
25.436,1.637944
25.44,1.616856
25.444,1.615417
25.448,1.594085
25.452,1.606939
25.456,1.583191
25.46,1.551648
25.464,1.583686
25.468,1.52723
25.472,1.558163
25.476,1.537383
25.48,1.528637
25.484,1.533548
25.488,1.508412
25.492,1.525317
25.496,1.508675
25.5,1.487654
25.504,1.519225
25.508,1.489022
25.512,1.490018
25.516,1.498223
25.52,1.490404
25.524,1.466528
25.528,1.44144
25.532,1.411493
25.536,1.436853
25.54,1.447285
25.544,1.425201
25.548,1.341996
25.552,1.421118
25.556,1.415237
25.56,1.383538
25.564,1.402355
25.568,1.388247
25.572,1.355155
25.576,1.387552
25.58,1.330124
25.584,1.347768
25.588,1.339308
25.592,1.319573
25.596,1.335895
25.6,1.349872
25.604,1.342576
25.608,1.326166
25.612,1.271965
25.616,1.273477
25.62,1.297959
25.624,1.28852
25.628,1.273946
25.632,1.316853
25.636,1.275842
25.64,1.279694
25.644,1.283871
25.648,1.260629
25.652,1.306919
25.656,1.232014
25.66,1.23458
25.664,1.223885
25.668,1.270198
25.672,1.251354
25.676,1.220965
25.68,1.211274
25.684,1.253125
25.688,1.229711
25.692,1.24791
25.696,1.2159
25.7,1.224914
25.704,1.218448
25.708,1.197903
25.712,1.205628
25.716,1.183133
25.72,1.215196
25.724,1.219219
25.728,1.222665
25.732,1.215248
25.736,1.198596
25.74,1.231631
25.744,1.218059
25.748,1.227795
25.752,1.229049
25.756,1.197701
25.76,1.20835
25.764,1.216651
25.768,1.178934
25.772,1.180322
25.776,1.178008
25.78,1.203152
25.784,1.200153
25.788,1.179797
25.792,1.213373
25.796,1.210531
25.8,1.238328
25.804,1.257362
25.808,1.22883
25.812,1.208544
25.816,1.238362
25.82,1.228738
25.824,1.227045
25.828,1.218081
25.832,1.22966
25.836,1.239186
25.84,1.262784
25.844,1.261042
25.848,1.29161
25.852,1.273017
25.856,1.272599
25.86,1.262721
25.864,1.252975
25.868,1.267348
25.872,1.269911
25.876,1.237987
25.88,1.274463
25.884,1.332241
25.888,1.313255
25.892,1.304162
25.896,1.325591
25.9,1.284596
25.904,1.335461
25.908,1.361632
25.912,1.340025
25.916,1.313473
25.92,1.347195
25.924,1.387711
25.928,1.374038
25.932,1.347321
25.936,1.42994
25.94,1.364486
25.944,1.391749
25.948,1.382969
25.952,1.390167
25.956,1.409071
25.96,1.438116
25.964,1.458529
25.968,1.432364
25.972,1.42729
25.976,1.464505
25.98,1.472559
25.984,1.474699
25.988,1.482917
25.992,1.482675
25.996,1.494424
26.0,1.496367
26.004,1.528944
26.008,1.559642
26.012,1.526191
26.016,1.529977
26.02,1.542717
26.024,1.531909
26.028,1.567806
26.032,1.568737
26.036,1.558872
26.04,1.592648
26.044,1.582265
26.048,1.569711
26.052,1.603315
26.056,1.608133
26.06,1.629646
26.064,1.634043
26.068,1.622128
26.072,1.621693
26.076,1.637909
26.08,1.651792
26.084,1.660762
26.088,1.663581
26.092,1.662103
26.096,1.690117
26.1,1.66285
26.104,1.731967
26.108,1.703569
26.112,1.671567
26.116,1.703508
26.12,1.720818
26.124,1.703808
26.128,1.68619
26.132,1.700473
26.136,1.737117
26.14,1.696062
26.144,1.7069
26.148,1.751207
26.152,1.740451
26.156,1.735263
26.16,1.743404
26.164,1.727842
26.168,1.770744
26.172,1.748556
26.176,1.757437
26.18,1.778384
26.184,1.76944
26.188,1.76343
26.192,1.74051
26.196,1.790246
26.2,1.786897
26.204,1.777209
26.208,1.768867
26.212,1.791745
26.216,1.80279
26.22,1.796641
26.224,1.828767
26.228,1.811234
26.232,1.795938
26.236,1.813606
26.24,1.800381
26.244,1.800691
26.248,1.825904
26.252,1.782015
26.256,1.800253
26.26,1.823202
26.264,1.80502
26.268,1.790702
26.272,1.763015
26.276,1.750599
26.28,1.83621
26.284,1.799351
26.288,1.779808
26.292,1.796604
26.296,1.768603
26.3,1.778693
26.304,1.764078
26.308,1.752033
26.312,1.735423
26.316,1.742619
26.32,1.791874
26.324,1.748415
26.328,1.775385
26.332,1.780188
26.336,1.75759
26.34,1.747327
26.344,1.751839
26.348,1.736569
26.352,1.764548
26.356,1.773417
26.36,1.76015
26.364,1.683244
26.368,1.712513
26.372,1.716176
26.376,1.720056
26.38,1.670818
26.384,1.664935
26.388,1.720253
26.392,1.677125
26.396,1.652631
26.4,1.654263
26.404,1.67799
26.408,1.647467
26.412,1.662385
26.416,1.631512
26.42,1.609642
26.424,1.666362
26.428,1.639099
26.432,1.617638
26.436,1.606985
26.44,1.639735
26.444,1.615223
26.448,1.619219
26.452,1.577439
26.456,1.582899
26.46,1.582651
26.464,1.55628
26.468,1.558002
26.472,1.540835
26.476,1.553049
26.48,1.511172
26.484,1.541548
26.488,1.528812
26.492,1.511007
26.496,1.516529
26.5,1.492701
26.504,1.479058
26.508,1.495801
26.512,1.489142
26.516,1.459746
26.52,1.450539
26.524,1.451273
26.528,1.436453
26.532,1.470589
26.536,1.439048
26.54,1.425685
26.544,1.39946
26.548,1.425667
26.552,1.391485
26.556,1.383552
26.56,1.405015
26.564,1.390334
26.568,1.325618
26.572,1.36571
26.576,1.364636
26.58,1.348682
26.584,1.35212
26.588,1.306254
26.592,1.279461
26.596,1.31031
26.6,1.329309
26.604,1.253122
26.608,1.294822
26.612,1.267428
26.616,1.295344
26.62,1.333794
26.624,1.284861
26.628,1.281757
26.632,1.295531
26.636,1.274151
26.64,1.264546
26.644,1.282646
26.648,1.268968
26.652,1.260871
26.656,1.248046
26.66,1.23978
26.664,1.261085
26.668,1.232216
26.672,1.259938
26.676,1.210905
26.68,1.257228
26.684,1.234868
26.688,1.203106
26.692,1.229881
26.696,1.204097
26.7,1.215352
26.704,1.202711
26.708,1.207727
26.712,1.227339
26.716,1.21719
26.72,1.182807
26.724,1.182632
26.728,1.208277
26.732,1.20878
26.736,1.187671
26.74,1.232418
26.744,1.216483
26.748,1.187512
26.752,1.185579
26.756,1.195657
26.76,1.193955
26.764,1.226283
26.768,1.221607
26.772,1.203563
26.776,1.217552
26.78,1.221773
26.784,1.207985
26.788,1.216563
26.792,1.222269
26.796,1.222196
26.8,1.199107
26.804,1.203549
26.808,1.213929
26.812,1.208344
26.816,1.195966
26.82,1.242071
26.824,1.238776
26.828,1.208525
26.832,1.234127
26.836,1.239056
26.84,1.250341
26.844,1.229183
26.848,1.228018
26.852,1.269924
26.856,1.233434
26.86,1.264193
26.864,1.267203
26.868,1.27628
26.872,1.288962
26.876,1.321176
26.88,1.262646
26.884,1.317728
26.888,1.25564
26.892,1.339567
26.896,1.276764
26.9,1.372392
26.904,1.322024
26.908,1.361889
26.912,1.364131
26.916,1.340183
26.92,1.348279
26.924,1.345383
26.928,1.384613
26.932,1.367218
26.936,1.366208
26.94,1.400308
26.944,1.378664
26.948,1.397137
26.952,1.41303
26.956,1.405266
26.96,1.415562
26.964,1.463418
26.968,1.436002
26.972,1.440301
26.976,1.45143
26.98,1.471489
26.984,1.449214
26.988,1.485946
26.992,1.490043
26.996,1.456688
27.0,1.535885
27.004,1.536755
27.008,1.499062
27.012,1.50015
27.016,1.53467
27.02,1.509083
27.024,1.572353
27.028,1.543138
27.032,1.592349
27.036,1.550793
27.04,1.572363
27.044,1.60723
27.048,1.582648
27.052,1.601725
27.056,1.625246
27.06,1.599316
27.064,1.592177
27.068,1.595138
27.072,1.642803
27.076,1.64565
27.08,1.665759
27.084,1.645606
27.088,1.628938
27.092,1.616863
27.096,1.72754
27.1,1.686874
27.104,1.685115
27.108,1.69388
27.112,1.66549
27.116,1.683906
27.12,1.740231
27.124,1.723962
27.128,1.700821
27.132,1.696718
27.136,1.715962
27.14,1.724845
27.144,1.776869
27.148,1.736705
27.152,1.721111
27.156,1.748007
27.16,1.758585
27.164,1.731647
27.168,1.769098
27.172,1.788866
27.176,1.770926
27.18,1.755507
27.184,1.763995
27.188,1.744346
27.192,1.777622
27.196,1.789113
27.2,1.767384
27.204,1.826351
27.208,1.80546
27.212,1.755634
27.216,1.757735
27.22,1.775006
27.224,1.827469
27.228,1.814957
27.232,1.830558
27.236,1.799044
27.24,1.795218
27.244,1.774837
27.248,1.80697
27.252,1.796053
27.256,1.795093
27.26,1.831769
27.264,1.796313
27.268,1.824703
27.272,1.765377
27.276,1.849768
27.28,1.787221
27.284,1.807324
27.288,1.808815
27.292,1.779667
27.296,1.803937
27.3,1.802737
27.304,1.768634
27.308,1.766273
27.312,1.778429
27.316,1.772262
27.32,1.799311
27.324,1.782206
27.328,1.763279
27.332,1.773177
27.336,1.716325
27.34,1.740992
27.344,1.754935
27.348,1.767209
27.352,1.744465
27.356,1.765051
27.36,1.748513
27.364,1.716509
27.368,1.718453
27.372,1.724261
27.376,1.701822
27.38,1.73599
27.384,1.677629
27.388,1.700439
27.392,1.703016
27.396,1.67611
27.4,1.66556
27.404,1.668659
27.408,1.680158
27.412,1.647555
27.416,1.629709
27.42,1.667538
27.424,1.64586
27.428,1.651292
27.432,1.639499
27.436,1.66101
27.44,1.632737
27.444,1.588911
27.448,1.605688
27.452,1.577963
27.456,1.572803
27.46,1.546357
27.464,1.561559
27.468,1.570814
27.472,1.551186
27.476,1.52308
27.48,1.50714
27.484,1.572345
27.488,1.529101
27.492,1.498592
27.496,1.516775
27.5,1.543784
27.504,1.50487
27.508,1.429185
27.512,1.530448
27.516,1.432907
27.52,1.45828
27.524,1.432264
27.528,1.432693
27.532,1.445775
27.536,1.391298
27.54,1.423588
27.544,1.441061
27.548,1.394023
27.552,1.375911
27.556,1.393821
27.56,1.382796
27.564,1.370683
27.568,1.35192
27.572,1.379249
27.576,1.374031
27.58,1.334161
27.584,1.330368
27.588,1.345177
27.592,1.316782
27.596,1.333393
27.6,1.353025
27.604,1.316424
27.608,1.28742
27.612,1.313725
27.616,1.296643
27.62,1.291633
27.624,1.298711
27.628,1.297728
27.632,1.279456
27.636,1.272511
27.64,1.310117
27.644,1.288125
27.648,1.276201
27.652,1.257722
27.656,1.230706
27.66,1.269249
27.664,1.245628
27.668,1.227401
27.672,1.23045
27.676,1.212524
27.68,1.249698
27.684,1.239088
27.688,1.226109
27.692,1.218846
27.696,1.203489
27.7,1.172082
27.704,1.184185
27.708,1.195533
27.712,1.190651
27.716,1.212607
27.72,1.221544
27.724,1.201425
27.728,1.23104
27.732,1.186259
27.736,1.198449
27.74,1.199572
27.744,1.222057
27.748,1.202141
27.752,1.202695
27.756,1.167116
27.76,1.182594
27.764,1.223079
27.768,1.16041
27.772,1.229721
27.776,1.213988
27.78,1.190363
27.784,1.190179
27.788,1.24643
27.792,1.238614
27.796,1.210055
27.8,1.217375
27.804,1.204179
27.808,1.222397
27.812,1.208999
27.816,1.223857
27.82,1.264758
27.824,1.229935
27.828,1.214352
27.832,1.211617
27.836,1.245284
27.84,1.231484
27.844,1.255753
27.848,1.222708
27.852,1.273335
27.856,1.24291
27.86,1.269772
27.864,1.266959
27.868,1.313114
27.872,1.287337
27.876,1.328114
27.88,1.305851
27.884,1.328705
27.888,1.301707
27.892,1.318603
27.896,1.341994
27.9,1.341764
27.904,1.340439
27.908,1.329523
27.912,1.339272
27.916,1.371666
27.92,1.382392
27.924,1.350269
27.928,1.35399
27.932,1.357605
27.936,1.399182
27.94,1.370973
27.944,1.412959
27.948,1.414631
27.952,1.399986
27.956,1.449392
27.96,1.396148
27.964,1.465909
27.968,1.446465
27.972,1.406024
27.976,1.48677
27.98,1.481844
27.984,1.461327
27.988,1.458108
27.992,1.453545
27.996,1.54077
28.0,1.481532
28.004,1.482267
28.008,1.520432
28.012,1.48984
28.016,1.510478
28.02,1.557499
28.024,1.554352
28.028,1.54478
28.032,1.560279
28.036,1.558432
28.04,1.573367
28.044,1.566649
28.048,1.577508
28.052,1.58407
28.056,1.588876
28.06,1.631316
28.064,1.632814
28.068,1.605665
28.072,1.607247
28.076,1.634728
28.08,1.687632
28.084,1.630533
28.088,1.654328
28.092,1.665693
28.096,1.668008
28.1,1.667171
28.104,1.705481
28.108,1.697397
28.112,1.711033
28.116,1.711591
28.12,1.723243
28.124,1.742483
28.128,1.742714
28.132,1.76775
28.136,1.750622
28.14,1.717765
28.144,1.752833
28.148,1.754679
28.152,1.783308
28.156,1.729836
28.16,1.764457
28.164,1.743637
28.168,1.771306
28.172,1.760392
28.176,1.777742
28.18,1.743241
28.184,1.790437
28.188,1.781644
28.192,1.783343
28.196,1.821902
28.2,1.777667
28.204,1.794402
28.208,1.79162
28.212,1.79545
28.216,1.837617
28.22,1.795962
28.224,1.78466
28.228,1.834556
28.232,1.79193
28.236,1.766737
28.24,1.784591
28.244,1.774855
28.248,1.763977
28.252,1.792716
28.256,1.798383
28.26,1.823019
28.264,1.811428
28.268,1.80976
28.272,1.779274
28.276,1.813704
28.28,1.822511
28.284,1.801072
28.288,1.79994
28.292,1.764321
28.296,1.808645
28.3,1.820934
28.304,1.789356
28.308,1.768412
28.312,1.774283
28.316,1.766164
28.32,1.764239
28.324,1.781112
28.328,1.770277
28.332,1.781134
28.336,1.764676
28.34,1.736017
28.344,1.739165
28.348,1.733645
28.352,1.736741
28.356,1.771781
28.36,1.770252
28.364,1.743007
28.368,1.723629
28.372,1.68886
28.376,1.715195
28.38,1.689564
28.384,1.732414
28.388,1.661995
28.392,1.695997
28.396,1.664894
28.4,1.676145
28.404,1.683502
28.408,1.684358
28.412,1.656339
28.416,1.666311
28.42,1.631277
28.424,1.642785
28.428,1.651179
28.432,1.630955
28.436,1.606825
28.44,1.604857
28.444,1.623706
28.448,1.574446
28.452,1.570226
28.456,1.593917
28.46,1.565824
28.464,1.53822
28.468,1.586929
28.472,1.530515
28.476,1.541079
28.48,1.52521
28.484,1.524155
28.488,1.504906
28.492,1.529359
28.496,1.509755
28.5,1.519673
28.504,1.480278
28.508,1.527587
28.512,1.439309
28.516,1.438189
28.52,1.497462
28.524,1.464413
28.528,1.454321
28.532,1.448713
28.536,1.444143
28.54,1.431388
28.544,1.398796
28.548,1.427251
28.552,1.41693
28.556,1.425176
28.56,1.424847
28.564,1.389197
28.568,1.351136
28.572,1.404316
28.576,1.341763
28.58,1.362233
28.584,1.343778
28.588,1.333835
28.592,1.351368
28.596,1.334709
28.6,1.333929
28.604,1.301307
28.608,1.308211
28.612,1.290493
28.616,1.296215
28.62,1.292261
28.624,1.326091
28.628,1.27872
28.632,1.236234
28.636,1.301626
28.64,1.277831
28.644,1.261493
28.648,1.250786
28.652,1.23616
28.656,1.289582
28.66,1.247739
28.664,1.207987
28.668,1.2455
28.672,1.259436
28.676,1.234976
28.68,1.21052
28.684,1.205606
28.688,1.20413
28.692,1.250134
28.696,1.21567
28.7,1.181109
28.704,1.220126
28.708,1.213206
28.712,1.199533
28.716,1.186411
28.72,1.184036
28.724,1.225727
28.728,1.207812
28.732,1.211489
28.736,1.206055
28.74,1.207146
28.744,1.190845
28.748,1.195907
28.752,1.223322
28.756,1.228505
28.76,1.17615
28.764,1.196995
28.768,1.218702
28.772,1.240503
28.776,1.239633
28.78,1.189399
28.784,1.23232
28.788,1.209683
28.792,1.231274
28.796,1.228209
28.8,1.189404
28.804,1.228102
28.808,1.239815
28.812,1.222074
28.816,1.220501
28.82,1.197119
28.824,1.24552
28.828,1.239488
28.832,1.220501
28.836,1.236225
28.84,1.249792
28.844,1.239649
28.848,1.255152
28.852,1.224531
28.856,1.291102
28.86,1.269164
28.864,1.251738
28.868,1.229552
28.872,1.30449
28.876,1.300367
28.88,1.29885
28.884,1.317469
28.888,1.323101
28.892,1.315581
28.896,1.312537
28.9,1.315322
28.904,1.338238
28.908,1.364022
28.912,1.34039
28.916,1.378443
28.92,1.362937
28.924,1.36974
28.928,1.416967
28.932,1.408741
28.936,1.41616
28.94,1.37361
28.944,1.440451
28.948,1.402073
28.952,1.406338
28.956,1.374929
28.96,1.431919
28.964,1.411052
28.968,1.448252
28.972,1.424262
28.976,1.490886
28.98,1.473432
28.984,1.515489
28.988,1.456941
28.992,1.51591
28.996,1.456407
29.0,1.504162
29.004,1.494907
29.008,1.506114
29.012,1.512268
29.016,1.511814
29.02,1.512406
29.024,1.536219
29.028,1.554827
29.032,1.583187
29.036,1.573188
29.04,1.597938
29.044,1.552322
29.048,1.580453
29.052,1.610503
29.056,1.610257
29.06,1.593214
29.064,1.636093
29.068,1.613687
29.072,1.615587
29.076,1.647613
29.08,1.644649
29.084,1.640629
29.088,1.646415
29.092,1.642522
29.096,1.662266
29.1,1.698336
29.104,1.68727
29.108,1.707479
29.112,1.704438
29.116,1.687559
29.12,1.672381
29.124,1.692258
29.128,1.702668
29.132,1.706282
29.136,1.745896
29.14,1.750566
29.144,1.780124
29.148,1.725196
29.152,1.776851
29.156,1.781004
29.16,1.748653
29.164,1.766729
29.168,1.78587
29.172,1.763509
29.176,1.765425
29.18,1.758901
29.184,1.727372
29.188,1.778933
29.192,1.766101
29.196,1.76139
29.2,1.793761
29.204,1.75853
29.208,1.805736
29.212,1.801162
29.216,1.785177
29.22,1.79342
29.224,1.772201
29.228,1.812145
29.232,1.801831
29.236,1.804077
29.24,1.809446
29.244,1.786939
29.248,1.769595
29.252,1.819123
29.256,1.813561
29.26,1.788701
29.264,1.807022
29.268,1.823243
29.272,1.819912
29.276,1.784715
29.28,1.764911
29.284,1.766836
29.288,1.785255
29.292,1.818861
29.296,1.772988
29.3,1.77339
29.304,1.770559
29.308,1.769664
29.312,1.777299
29.316,1.748971
29.32,1.793135
29.324,1.765256
29.328,1.81427
29.332,1.737584
29.336,1.789055
29.34,1.781125
29.344,1.740945
29.348,1.737001
29.352,1.722044
29.356,1.71769
29.36,1.731142
29.364,1.726689
29.368,1.689207
29.372,1.761963
29.376,1.705605
29.38,1.706676
29.384,1.687279
29.388,1.688777
29.392,1.68115
29.396,1.68232
29.4,1.676044
29.404,1.686278
29.408,1.668463
29.412,1.671638
29.416,1.650891
29.42,1.649151
29.424,1.633048
